1,2,3,4,5,6,7,8,9,10,11,12,13,14,15,16,17,18,19,20,21,22,23,24,25,26,27,28,29,30,31,32,33,34,35,36,37,38,39,40,41,42,43,44,45,46,47,48,49,50,51,52,53,54,55,56,57,58,59,60,61,62,63,64,65,66,67,68,69,70,71,72,73,74,75,76,77,78,79,80,81,82,83,84,85,86,87,88,89,90,91,92,93,94,95,96,97,98,99,100,101,102,103,104,105,106,107,108,109,110,111,112,113,114,115,116,117,118,119,120,121,122,123,124,125,126,127,128,129,130,131,132,133,134,135,136,137,138,139,140,141,142,143,144,145,146,147,148,149,150,151,152,153,154,155,156,157,158,159,160,161,162,163,164,165,166,167,168,169,170,171,172,173,174,175,176,177,178,179,180,181,182,183,184,185,186,187,188,189,190,191,192,193,194,195,196,197,198,199,200,201,202,203,204,205,206,207,208,209,210,211,212,213,214,215,216,217,218,219,220,221,222,223,224,225,226,227,228,229,230,231,232,233,234,235,236,237,238,239,240,241,242,243,244,245,246,247,248,249,250,251,252,253,254,255,256,257,258,259,260,261,262,263,264,265,266,267,268,269,270,271,272,273,274,275,276,277,278,279,280,281,282,283,284,285,286,287,288,289,290,291,292,293,294,295,296,297,298,299,300,301,302,303,304,305,306,307,308,309,310,311,312,313,314,315,316,317,318,319,320,321,322,323,324,325,326,327,328,329,330,331,332,333,334,335,336,337,338,339,340,341,342,343,344,345,346,347,348,349,350,351,352,353,354,355,356,357,358,359,360,361,362,363,364,365,366,367,368,369,370,371,372,373,374,375,376,377,378,379,380,381,382,383,384,385,386,387,388,389,390,391,392,393,394,395,396,397,398,399,400,401,402,403,404,405,406,407,408,409,410,411,412,413,414,415,416,417,418,419,420,421,422,423,424,425,426,427,428,429,430,431,432,433,434,435,436,437,438,439,440,441,442,443,444,445,446,447,448,449,450,451,452,453,454,455,456,457,458,459,460,461,462,463,464,465,466,467,468,469,470,471,472,473,474,475,476,477,478,479,480,481,482,483,484,485,486,487,488,489,490,491,492,493,494,495,496,497,498,499,500,501,502,503,504,505,506,507,508,509,510,511,512,513,514,515,516,517,518,519,520,521,522,523,524,525,526,527,528,529,530,531,532,533,534,535,536,537,538,539,540,541,542,543,544,545,546,547,548,549,550,551,552,553,554,555,556,557,558,559,560,561,562,563,564,565,566,567,568,569,570,571,572,573,574,575,576,577,578,579,580,581,582,583,584,585,586,587,588,589,590,591,592,593,594,595,596,597,598,599,600,601,602,603,604,605,606,607,608,609,610,611,612,613,614,615,616,617,618,619,620,621,622,623,624,625,626,627,628,629,630,631,632,633,634,635,636,637,638,639,640,641,642,643,644,645,646,647,648,649,650,651,652,653,654,655,656,657,658,659,660,661,662,663,664,665,666,667,668,669,670,671,672,673,674,675,676,677,678,679,680,681,682,683,684,685,686,687,688,689,690,691,692,693,694,695,696,697,698,699,700,701,702,703,704,705,706,707,708,709,710,711,712,713,714,715,716,717,718,719,720,721,722,723,724,725,726,727,728,729,730,731,732,733,734,735,736,737,738,739,740,741,742,743,744,745,746,747,748,749,750,751,752,753,754,755,756,757,758,759,760,761,762,763,764,765,766,767,768,769,770,771,772,773,774,775,776,777,778,779,780,781,782,783,784,785,786,787,788,789,790,791,792,793,794,795,796,797,798,799,800,801,802,803,804,805,806,807,808,809,810,811,812,813,814,815,816,817,818,819,820,821,822,823,824,825,826,827,828,829,830,831,832,833,834,835,836,837,838,839,840,841,842,843,844,845,846,847,848,849,850,851,852,853,854,855,856,857,858,859,860,861,862,863,864,865,866,867,868,869,870,871,872,873,874,875,876,877,878,879,880,881,882,883,884,885,886,887,888,889,890,891,892,893,894,895,896,897,898,899,900,901,902,903,904,905,906,907,908,909,910,911,912,913,914,915,916,917,918,919,920,921,922,923,924,925,926,927,928,929,930,931,932,933,934,935,936,937,938,939,940,941,942,943,944,945,946,947,948,949,950,951,952,953,954,955,956,957,958,959,960,961,962,963,964,965,966,967,968,969,970,971,972,973,974,975,976,977,978,979,980,981,982,983,984,985,986,987,988,989,990,991,992,993,994,995,996,997,998,999,1000,1001,1002,1003,1004,1005,1006,1007,1008,1009,1010,1011,1012,1013,1014,1015,1016,1017,1018,1019,1020,1021,1022,1023,1024,1025,1026,1027,1028,1029,1030,1031,1032,1033,1034,1035,1036,1037,1038,1039,1040,1041,1042,1043,1044,1045,1046,1047,1048,1049,1050,1051,1052,1053,1054,1055,1056,1057,1058,1059,1060,1061,1062,1063,1064,1065,1066,1067,1068,1069,1070,1071,1072,1073,1074,1075,1076,1077,1078,1079,1080,1081,1082,1083,1084,1085,1086,1087,1088,1089,1090,1091,1092,1093,1094,1095,1096,1097,1098,1099,1100,1101,1102,1103,1104,1105,1106,1107,1108,1109,1110,1111,1112,1113,1114,1115,1116,1117,1118,1119,1120,1121,1122,1123,1124,1125,1126,1127,1128,1129,1130,1131,1132,1133,1134,1135,1136,1137,1138,1139,1140,1141,1142,1143,1144,1145,1146,1147,1148,1149,1150,1151,1152,1153,1154,1155,1156,1157,1158,1159,1160,1161,1162,1163,1164,1165,1166,1167,1168,1169,1170,1171,1172,1173,1174,1175,1176,1177,1178,1179,1180,1181,1182,1183,1184,1185,1186,1187,1188,1189,1190,1191,1192,1193,1194,1195,1196,1197,1198,1199,1200,1201,1202,1203,1204,1205,1206,1207,1208,1209,1210,1211,1212,1213,1214,1215,1216,1217,1218,1219,1220,1221,1222,1223,1224,1225,1226,1227,1228,1229,1230,1231,1232,1233,1234,1235,1236,1237,1238,1239,1240,1241,1242,1243,1244,1245,1246,1247,1248,1249,1250,1251,1252,1253,1254,1255,1256,1257,1258,1259,1260,1261,1262,1263,1264,1265,1266,1267,1268,1269,1270,1271,1272,1273,1274,1275,1276,1277,1278,1279,1280,1281,1282,1283,1284,1285,1286,1287,1288,1289,1290,1291,1292,1293,1294,1295,1296,1297,1298,1299,1300,1301,1302,1303,1304,1305,1306,1307,1308,1309,1310,1311,1312,1313,1314,1315,1316,1317,1318,1319,1320,1321,1322,1323,1324,1325,1326,1327,1328,1329,1330,1331,1332,1333,1334,1335,1336,1337,1338,1339,1340,1341,1342,1343,1344,1345,1346,1347,1348,1349,1350,1351,1352,1353,1354,1355,1356,1357,1358,1359,1360,1361,1362,1363,1364,1365,1366,1367,1368,1369,1370,1371,1372,1373,1374
35509,34917,34685,34275,34292,34613,35120,34477,32874,33119,33801,34468,33883,35169,35097,35093,34906,34898,35035,34726,35314,34639,34947,34853,34706,35087,34900,34739,34807,34315,34607,34465,34817,34758,34515,34822,34654,34823,34634,34615,34726,35028,34674,34673,34483,34756,34630,34531,34565,34743,35890,35518,35578,35615,35609,34909,32575,35005,32525,33557,33802,33620,31880,31818,31576,31478,31891,31538,31829,31574,31339,31389,31820,31962,31815,31866,31923,32096,31948,31971,31839,31571,32203,31909,31635,31485,32063,31747,32002,31740,31834,31812,31798,31486,31699,31581,31807,31426,31835,31801,32128,31804,31878,31697,31605,31770,30712,30678,30571,30680,30859,30954,30854,30611,30878,30439,30435,30983,30763,30811,30612,30497,30441,30960,30633,30438,33052,33214,33404,32921,32896,33446,33110,33560,33506,34088,33940,32984,30879,33266,30706,30532,30251,30429,29845,30100,30004,29737,29782,29507,29731,29645,29687,29564,30413,30603,31603,31121,30488,30089,30638,30629,30284,29991,30056,29678,30172,30332,30386,30325,30305,29675,33198,32863,32674,32460,32623,32200,32280,32017,32414,32352,32288,32396,32290,32474,32070,32299,32299,32210,32498,32405,32399,32539,32159,32210,32143,32019,31719,31904,32369,32354,32332,32458,32595,32478,32520,32301,32275,32308,31530,31579,31969,32234,32464,32285,31477,31503,32593,35046,34961,34968,34769,34616,34839,34809,34764,34954,34868,34597,34976,34943,34754,34912,34541,34860,34700,34733,35177,34814,34607,34740,35123,35116,34871,34874,34807,34698,34784,35061,35096,34570,34508,34391,34288,34595,34742,34588,34869,34685,34713,34300,34741,35592,35301,35283,35159,35264,35239,35307,35067,35022,34740,35078,35029,34930,33810,33977,33657,33916,33915,33699,33882,33859,33755,33569,33800,33879,33724,33781,33693,33330,33511,33058,33398,33338,33357,33431,33431,33382,33240,33253,33613,33404,33347,34080,34098,33247,33141,35657,74250,74499,73973,74038,74155,73410,74000,73885,74092,74208,74838,74142,74553,73792,74211,73739,74070,73787,74441,74013,74076,74567,74055,74475,74795,74327,73971,73949,73969,74168,73654,74006,74354,74037,74392,73708,28807,28503,28618,28849,28700,29025,28769,28810,28798,28478,28409,28640,28432,28728,28509,28301,28547,28322,28292,28386,28520,28365,28268,28269,28080,28101,28445,28324,28549,28335,28330,28121,28612,30449,30593,30516,29534,32400,32496,32013,32017,32034,31987,31553,31898,31724,31925,31589,31925,31662,31568,31411,31451,31496,31777,31551,31405,30991,31350,31188,31584,31475,31281,31811,31603,31640,31501,31683,32191,31417,27131,27197,27250,27252,27539,27264,26896,27214,26849,27211,27135,27110,27108,26908,26968,27135,26612,26629,26999,26989,26756,26676,26512,26958,27113,27023,26862,26849,27113,26974,26849,27073,26808,26907,26778,26672,27233,26681,26772,26993,26858,26879,26627,26828,26720,26824,26578,26916,26645,26770,26623,26595,26656,26338,26448,26710,26598,26718,26781,26221,26543,26547,26241,26184,26541,26175,26211,26245,25892,26097,26441,26201,26263,26091,26295,26274,26142,26354,26115,26257,26461,30210,30018,30091,30068,30109,29862,30154,30152,29912,30125,30080,29863,30197,30003,29936,29900,29826,30157,30134,29979,29813,29961,30042,30180,30121,30568,30562,30139,29883,29800,30445,30491,30610,30443,30523,30638,30402,29952,30763,30215,27649,27254,26672,26306,26537,26946,26271,26566,26747,26884,27041,26187,26894,26878,27280,26468,26539,26762,26441,26890,26806,26635,26694,26753,27207,27090,26526,26565,26635,26387,26593,27107,26893,27222,27059,26600,26573,26538,27021,26613,26374,26834,26498,26856,26732,26630,26639,26626,26644,26618,26792,27043,26687,26626,26618,26663,26905,26855,26756,26686,26715,26845,26851,26591,26723,26876,26730,26779,26635,26671,26692,27195,26938,26701,26676,26623,26611,26459,26495,26315,26461,26542,26637,30493,30371,30451,30542,30382,30143,30006,30022,30249,30033,29999,30107,29743,30046,29945,29951,30191,30124,29922,29705,29819,29587,29606,29492,29352,29498,29662,29428,29478,29325,29204,29332,29316,29562,29136,29318,29100,29681,29227,29302,27359,27563,26996,27171,27551,27504,27171,26989,27388,27326,27105,26996,26810,26852,27670,27111,27012,27156,27174,26970,27221,27041,26920,27109,26950,26847,27015,27057,27167,26861,26682,26791,26869,26864,26632,26742,26728,26647,26732,27321,27085,27660,31857,31761,32172,31573,31429,31467,31567,31735,31602,31827,31316,31324,31272,31324,31508,31665,31300,31671,31182,31456,31269,31381,31697,31547,31800,32085,31628,31104,31160,31861,31865,31874,31443,31557,31520,31477,31646,32135,32092,31919,31951,31977,31990,31898,31782,32045,31708,31716,31716,31580,31695,31600,31405,31744,31618,31497,31839,31594,31611,31589,31832,31344,31400,31635,31400,31511,31353,31313,31449,31384,31688,31405,31392,31211,31536,31359,31216,30149,30075,30097,30054,29990,30044,29881,29953,29895,29915,30211,30123,30248,30129,29987,30001,30090,30146,30063,30092,30216,30074,30222,30162,30034,30012,30268,30391,30331,30166,30155,30058,30072,30196,30155,30086,30249,33552,33569,33343,33514,33498,33293,33341,33196,33666,33703,33569,33511,33400,33434,33256,33801,33656,33493,33453,33360,33225,33676,33496,33703,33503,33261,33201,33151,33162,33084,32993,32818,32754,33033,32918,33197,33349,33175,33117,32988,33132,33704,33179,33131,27235,27111,27393,27484,27807,27651,27658,27432,27554,27278,27504,27227,26987,26823,26818,26680,27234,27111,27039,26684,26762,26702,26928,27125,26980,26935,26708,26894,26660,29438,29309,29234,29283,29251,29307,29256,29151,28976,29115,28825,28808,28865,29202,29220,29040,29119,29115,29254,29195,29150,29138,29048,28924,29046,29181,29192,29272,29168,29345,29218,29795,29885,29954,30073,30130,30089,30098,30054,30044,30032,29989,30011,29952,29999,29929,29938,29904,29773,29765,29761,29699,29618,29552,29605,29631,29654,29657,29471,29487,29607,29481,29523,29602,29642,29615,29743,29602,29632,29679,29704,29701,29666,29647,29680,29662,29992,29971,29582,27697,27589,27480,27570,27471,27502,27415,27541,27482,27265,27570,27461,27481,27574,27659,27667,27299,27288,27289,27353,27310,27193,27210,27415,27221,27412,27639,27495,27478,27454,27781,27547,27557,27620,27545,27599,27608,27419,27425,27620,27510,27350,28336,27777,26295,26108,26466,26313,26415,26332,26628,26416,26488,26330,26264,26686,26568,26273,26755,26459,26401,26673,26534,26193,26340,26210,26308,26185,26543,26141,26315,26159,26164,26158,26408,26201,26240,26319,26025,26244,25938,26270,26069,26580,30057,30121,30003,30330,30250,30230,30256,30234,30621,30576,30532,30513,30549,30530,30441,30526,30629,30649,30390,30550,30570,30491,30458,30863,30846,30729,30652,30391,30592,30385,30821,30775,30674,30446,30446,30324,30329,30369,30215,30344,30384,30278,30427,28817,28861,28888,28893,29010,29008,29008,28952,28972,28976,28965,28956,28963,28842,28837,28844,28821,28855,28851,28855,28860,28825,28801,28776,28761,28902,28932,28879,28707,28671,28759,28690,28764,28663,28643,28702,28565,28696,28801,28818,28693,28915,28953,28986,29061,29102,29104,29113,29060,29079,29086,29052,29059,29254,29236,29173,29126,29092,29027,29112,29173,29230,29210,29048,29099,29093,29135,29141,29168,29116,29116,29098,29069,29090,29075,29108,29096,29126,29118,28964,26913,27041,25985,26015,25843,26000,25915,25934,25888,25944,25918,25969,25924,25967,25897,25877,25794,25908,25902,26013,26018,25774,25892,25818,25816,25910,25883,25812,25833,25843,25897,27061,27082,26916,26945,29518,30360,29786,29773,30075,29843,29775,29621,28936,29114,28738,29027,29096,28774,28917,28825,29082,29557,29557,29388,29337,29224,29090,29361,29272,29055,28680,29603,29412,28503,26609,26585,26296,26433,26267,26280,26313,26488,26237,26234,26214,26394,26093,26259,26108,26037,26275,26565,26420,26085,26189,26097,26045,26155,26171,26170,26023,26025,26000,26149,26107,25912,25768,25723,25893,25844,26055,26180,25977,26632,26361,26103,27584,27617,27629,27809,27694,27828,27849,27808,27890,27885,27893,27935,27987,28078,28180,28142,28187,27942,28006,27429,27958,26738,26578,26430,26695,26610,26449,26225,26385,26292,26187,26053,27338,27273,27142,27229,27181,27190,27208,27115,27051,26949,26877,26906,26996,27054,27210,27253,27687,27159,27063,26983,27019,26848,26843,26943,27302,29649,29944,29663,29660,29823,29947,29869,29954,29494,29762,29770,29586,29762,29805,29241,29470,29286,29561,29440,29635,29657,29324,29717,29665,29049,28764,28598,28409,28742,28690,28721,28611,28371,28442,28801
35508,34936,34700,34275,34303,34632,35133,34494,32903,33136,33813,34462,33922,35171,35126,35118,34929,34914,35046,34756,35215,34669,34970,34887,34724,35111,34927,34761,34830,34337,34627,34486,34844,34781,34533,34850,34585,34844,34629,34639,34744,35051,34702,34688,34498,34754,34590,34500,34420,34765,35903,35530,35620,35608,35402,34919,32593,34945,32529,33594,33729,33632,31907,31843,31499,31521,31907,31568,31851,31583,31288,31430,31840,31985,31819,31863,31952,32103,31982,31995,31853,31591,32227,31817,31680,31504,32081,31763,32021,31737,31854,31834,31696,31529,31712,31569,31833,31454,31844,31843,32153,31693,31881,31707,31607,31677,30745,30705,30593,30697,30838,30980,30881,30638,30898,30464,30427,31010,30789,30821,30632,30522,30457,30972,30638,30486,33084,33161,33420,32934,32926,33466,33122,33575,33449,34092,33955,32997,30895,33278,30696,30513,30257,30455,29813,30112,29916,29741,29795,29503,29744,29645,29677,29512,30413,30594,31617,31099,30495,30117,30653,30633,30291,30016,30063,29691,30191,30344,30350,30339,30311,29685,33218,32870,32686,32481,32631,32166,32315,32033,32442,32306,32306,32403,32313,32355,32019,32298,32298,32150,32513,32411,32381,32548,32179,32203,32174,32036,31709,31940,32369,32352,32366,32404,32584,32502,32484,32331,32439,32178,31515,31626,31926,32151,32478,32330,31485,31519,32598,35054,34972,34984,34801,34647,34843,34812,34781,34966,34731,34639,34983,34948,34791,34929,34566,34853,34670,34760,35182,34824,34642,34549,35094,35129,34860,34873,34816,34721,34780,34952,35110,34595,34532,34331,34318,34606,34752,34612,34892,34704,34713,34245,34747,35600,35288,35250,35130,35272,35263,35330,35099,35041,34743,35083,35046,34925,33810,33994,33664,33918,33910,33703,33877,33810,33763,33592,33748,33900,33741,33795,33707,33321,33476,33061,33329,33343,33381,33446,33347,33406,33246,33265,33610,33409,33364,34091,34003,33262,33163,35665,74250,74507,73958,74043,74177,73433,74050,73922,73851,74219,74871,74131,74573,73699,74255,73756,74114,73809,74473,74048,74092,74588,74083,74497,74832,74352,73977,73998,74002,74210,73601,74067,74394,74072,74422,73730,28815,28518,28631,28872,28718,28952,28786,28771,28812,28491,28393,28656,28405,28729,28533,28309,28541,28341,28227,28352,28521,28382,28285,28287,28104,28069,28453,28343,28566,28284,28328,28145,28617,30454,30597,30533,29557,32345,32509,32036,32010,32041,31902,31573,31904,31742,31930,31601,31911,31641,31533,31395,31468,31491,31796,31548,31418,31002,31313,31118,31579,31416,31298,31789,31548,31665,31518,31700,32117,31417,27153,27209,27264,27268,27554,27281,26901,27144,26815,27138,27146,27127,27124,26929,26985,27147,26620,26642,27010,27003,26775,26652,26499,26975,27116,27039,26871,26866,27131,26967,26863,27071,26749,26915,26724,26690,27209,26705,26789,26986,26849,26889,26614,26823,26729,26824,26592,26929,26664,26787,26621,26605,26653,26347,26459,26726,26614,26610,26673,26191,26567,26556,26255,26187,26433,26193,26220,26265,25890,26109,26448,26201,26270,26053,26305,26293,26147,26360,26125,26267,26479,30232,30035,30091,30071,30027,29862,30168,30175,29935,30012,30107,29892,30209,30020,29946,29934,29831,30132,30150,29995,29741,29960,29918,30201,30140,30578,30465,30033,29889,29832,30406,30502,30620,30467,30558,30643,30433,29976,30772,30231,27634,27266,26699,26323,26544,26862,26269,26578,26765,26895,27063,26178,26922,26896,27307,26501,26495,26689,26466,26820,26830,26653,26724,26759,27165,27105,26538,26584,26656,26403,26560,27126,26910,27241,27047,26624,26509,26544,27008,26630,26395,26760,26517,26867,26737,26631,26636,26638,26646,26611,26792,27052,26657,26629,26620,26674,26914,26854,26758,26690,26716,26812,26801,26595,26736,26846,26735,26792,26638,26619,26670,27185,26937,26707,26692,26632,26629,26455,26502,26325,26459,26482,26643,30503,30372,30461,30550,30356,30153,30003,30030,30254,30037,30002,30113,29754,30038,29953,29939,30200,30129,29878,29723,29787,29594,29535,29503,29352,29506,29656,29419,29485,29271,29210,29348,29336,29573,29116,29330,29105,29659,29238,29306,27377,27510,27020,27190,27569,27522,27194,26958,27355,27333,27127,27015,26838,26849,27564,27139,27038,27061,27199,26992,27237,27057,26936,27124,26967,26877,27032,27073,27179,26800,26716,26811,26882,26789,26642,26770,26733,26659,26743,27347,27065,27667,31814,31761,32186,31575,31379,31481,31581,31746,31609,31838,31319,31337,31279,31340,31506,31682,31312,31695,31174,31454,31271,31395,31713,31567,31816,32093,31656,31118,31088,31735,31888,31891,31468,31576,31524,31436,31649,32133,32103,31925,31965,31993,31930,31894,31801,32061,31659,31715,31713,31581,31712,31612,31413,31700,31633,31505,31851,31609,31602,31603,31838,31339,31418,31657,31389,31519,31370,31330,31445,31406,31699,31423,31387,31217,31553,31373,31229,30153,30076,30101,30057,29991,30042,29881,29947,29900,29922,30196,30106,30230,30130,29981,30011,30094,30141,30069,30083,30200,30072,30223,30177,30040,30008,30269,30381,30323,30169,30157,30069,30066,30198,30162,30072,30255,33556,33582,33346,33521,33493,33300,33347,33200,33673,33686,33575,33512,33399,33406,33252,33807,33662,33496,33462,33361,33223,33676,33496,33663,33500,33263,33213,33158,33170,33094,32988,32804,32736,33037,32929,33199,33346,33179,33125,32986,33135,33708,33186,33138,27210,27141,27421,27496,27771,27670,27670,27425,27502,27299,27525,27259,26968,26824,26820,26675,27258,27100,27038,26684,26702,26698,26943,27141,27002,26926,26662,26864,26642,29442,29322,29239,29252,29254,29279,29262,29155,28981,29124,28822,28808,28870,29206,29227,29047,29036,29118,29222,29192,29114,29145,29053,28928,29050,29184,29200,29224,29172,29350,29223,29801,29887,29944,30074,30130,30085,30087,30059,30046,30032,29968,30017,29949,29995,29930,29922,29899,29775,29763,29765,29692,29619,29554,29607,29633,29655,29660,29463,29487,29608,29481,29527,29601,29632,29614,29737,29603,29632,29681,29707,29703,29656,29651,29681,29665,29994,29971,29587,27704,27590,27492,27574,27484,27500,27414,27540,27494,27279,27579,27456,27494,27584,27670,27675,27309,27300,27263,27271,27324,27215,27214,27419,27231,27410,27638,27501,27475,27460,27779,27553,27563,27626,27546,27604,27581,27412,27428,27619,27487,27348,28345,27781,26313,26115,26479,26319,26431,26322,26544,26441,26510,26312,26271,26710,26593,26223,26775,26472,26418,26697,26554,26211,26345,26217,26328,26190,26442,26148,26284,26171,26174,26162,26368,26216,26257,26239,26013,26155,25944,26286,26059,26593,30056,30115,30006,30335,30261,30235,30257,30231,30602,30566,30536,30525,30553,30509,30440,30533,30633,30652,30399,30554,30574,30482,30465,30868,30849,30737,30654,30359,30595,30394,30823,30767,30673,30453,30452,30330,30339,30337,30226,30353,30381,30284,30430,28820,28860,28886,28895,28996,29013,29014,28958,28976,28976,28970,28964,28946,28846,28843,28846,28820,28857,28856,28855,28846,28826,28789,28767,28764,28902,28934,28874,28702,28672,28743,28696,28753,28663,28644,28706,28564,28697,28808,28807,28700,28913,28954,28986,29060,29097,29099,29115,29056,29083,29090,29054,29067,29245,29238,29175,29126,29095,29029,29114,29172,29233,29214,29050,29105,29094,29141,29140,29161,29117,29115,29099,29070,29093,29072,29113,29095,29131,29122,28965,26915,27047,25990,26018,25844,25998,25916,25937,25889,25932,25924,25971,25931,25974,25902,25879,25795,25911,25905,26018,25999,25774,25891,25821,25819,25915,25889,25813,25838,25826,25900,27061,27084,26917,26946,29544,30361,29805,29788,30095,29864,29786,29635,28860,29136,28771,29058,29124,28742,28814,28749,29101,29562,29569,29400,29334,29243,29103,29297,29285,29019,28702,29627,29430,28411,26625,26590,26308,26440,26274,26292,26320,26505,26245,26240,26224,26405,26101,26198,26101,26035,26201,26572,26423,26084,26194,26102,26048,26168,26184,26178,26019,26033,25940,26149,26125,25921,25761,25725,25841,25848,26031,26181,25984,26631,26361,26102,27588,27619,27637,27807,27693,27826,27850,27811,27893,27891,27890,27941,27988,28077,28182,28139,28190,27949,28008,27436,27963,26739,26565,26437,26701,26592,26447,26226,26394,26297,26195,26054,27325,27278,27140,27233,27183,27194,27211,27117,27041,26952,26883,26916,27000,27056,27205,27255,27691,27148,27068,26988,27024,26810,26805,26947,27308,29655,29950,29667,29670,29836,29945,29883,29896,29503,29769,29787,29599,29772,29807,29247,29419,29296,29566,29452,29646,29594,29328,29728,29679,29002,28750,28602,28356,28727,28692,28728,28613,28387,28433,28809
35500,34959,34706,34281,34314,34648,35152,34500,32927,33155,33824,34467,33955,35098,35148,35128,34950,34941,35056,34791,35013,34704,34988,34922,34750,35138,34951,34775,34854,34371,34648,34511,34862,34812,34553,34858,34572,34860,34614,34651,34752,35065,34709,34706,34513,34693,34582,34498,34318,34778,35906,35561,35650,35603,35204,34918,32605,34901,32523,33628,33673,33650,31925,31869,31443,31549,31928,31600,31867,31588,31254,31458,31864,31999,31816,31859,31970,32124,32005,32016,31857,31615,32235,31745,31715,31525,32090,31778,32031,31739,31866,31858,31616,31557,31728,31565,31851,31496,31859,31879,32150,31605,31891,31706,31609,31608,30771,30728,30605,30723,30772,30988,30904,30666,30924,30509,30422,31020,30801,30822,30636,30542,30488,30992,30667,30500,33124,33151,33446,32932,32944,33484,33134,33585,33460,34084,33964,33006,30899,33312,30691,30507,30263,30499,29802,30123,29864,29743,29809,29501,29758,29655,29680,29498,30423,30562,31633,31079,30500,30133,30672,30648,30309,30047,30068,29703,30225,30354,30286,30350,30313,29699,33236,32880,32684,32491,32639,32141,32343,32051,32455,32283,32313,32416,32322,32262,32001,32304,32304,32117,32525,32401,32363,32552,32176,32205,32207,32031,31723,31967,32353,32329,32388,32275,32570,32520,32367,32354,32435,32025,31514,31671,31907,32007,32486,32369,31496,31520,32591,35057,34982,35002,34826,34686,34838,34823,34802,34980,34550,34679,34996,34950,34823,34946,34607,34846,34680,34791,35194,34830,34669,34565,34925,35135,34886,34866,34826,34737,34775,34739,35120,34626,34559,34175,34352,34628,34766,34623,34914,34722,34726,34229,34744,35604,35287,35239,35112,35277,35293,35340,35138,35047,34729,35092,35052,34914,33797,34017,33673,33922,33894,33717,33867,33789,33777,33616,33722,33916,33763,33811,33734,33315,33379,33080,33287,33354,33399,33465,33269,33425,33250,33269,33569,33426,33381,34098,33942,33277,33185,35664,74263,74533,73939,74078,74215,73447,74099,73949,73719,74219,74894,74155,74593,73678,74304,73783,74149,73807,74500,74107,74098,74501,74120,74520,74867,74371,73973,74037,74039,74241,73599,74094,74435,74109,74316,73757,28828,28537,28640,28884,28730,28876,28812,28699,28805,28505,28388,28673,28382,28693,28548,28325,28482,28359,28177,28319,28480,28398,28294,28308,28118,28046,28459,28358,28583,28249,28290,28165,28632,30464,30609,30552,29571,32308,32520,32053,32000,32039,31829,31588,31914,31775,31939,31609,31850,31655,31511,31383,31484,31490,31798,31507,31444,31010,31290,31062,31585,31375,31317,31789,31523,31687,31532,31694,32051,31435,27170,27224,27280,27278,27568,27295,26912,27066,26796,27061,27160,27149,27140,26949,27004,27147,26645,26654,27014,27012,26795,26638,26501,26995,27114,27050,26887,26882,27143,26938,26881,27050,26704,26932,26678,26708,27188,26720,26802,26975,26844,26897,26616,26816,26747,26817,26613,26939,26677,26799,26616,26612,26597,26368,26475,26740,26621,26519,26591,26184,26576,26568,26275,26195,26339,26205,26229,26276,25886,26124,26456,26220,26281,26037,26317,26300,26153,26357,26136,26283,26495,30250,30058,30093,30075,29976,29872,30184,30189,29960,29923,30127,29918,30221,30035,29952,29952,29832,30052,30158,30030,29707,29956,29820,30208,30158,30601,30388,29927,29888,29876,30405,30504,30637,30490,30583,30649,30458,30003,30794,30238,27536,27280,26722,26335,26550,26777,26273,26598,26779,26902,27089,26182,26947,26918,27320,26532,26458,26608,26489,26765,26848,26665,26744,26764,27137,27115,26554,26602,26679,26432,26536,27144,26907,27251,27039,26646,26456,26549,26947,26644,26419,26702,26547,26870,26754,26626,26640,26650,26644,26612,26766,27066,26651,26626,26624,26694,26925,26852,26763,26697,26723,26770,26757,26606,26745,26809,26742,26799,26647,26569,26626,27155,26925,26693,26696,26647,26644,26460,26520,26324,26450,26437,26646,30495,30374,30468,30557,30329,30153,29994,30040,30233,30046,30006,30124,29763,30010,29962,29927,30210,30142,29824,29729,29771,29614,29485,29516,29362,29527,29644,29424,29490,29241,29222,29360,29352,29577,29101,29343,29113,29620,29246,29306,27392,27471,27049,27198,27581,27520,27212,26936,27276,27353,27148,27044,26844,26858,27454,27161,27056,27000,27214,27015,27252,27079,26952,27127,26984,26893,27043,27090,27193,26758,26738,26825,26882,26726,26667,26794,26735,26670,26751,27359,27052,27669,31791,31769,32194,31507,31362,31494,31592,31754,31609,31800,31313,31358,31288,31344,31523,31697,31324,31700,31174,31430,31272,31398,31728,31581,31833,32107,31657,31129,31062,31676,31910,31907,31482,31597,31530,31406,31649,32149,32103,31938,31980,32009,31883,31894,31815,32071,31634,31714,31710,31596,31726,31622,31421,31670,31641,31508,31871,31621,31604,31616,31847,31329,31434,31664,31387,31518,31377,31349,31439,31417,31705,31448,31392,31226,31536,31388,31248,30162,30071,30108,30063,29996,30037,29887,29945,29896,29931,30182,30100,30209,30134,29987,30023,30101,30147,30065,30087,30181,30073,30231,30179,30036,30007,30269,30376,30302,30164,30159,30070,30064,30206,30162,30067,30258,33567,33592,33349,33529,33505,33318,33352,33206,33684,33685,33573,33521,33395,33371,33259,33804,33668,33502,33464,33372,33236,33680,33498,33630,33504,33269,33217,33163,33147,33101,32980,32813,32729,33048,32930,33207,33357,33183,33135,32989,33143,33709,33182,33147,27199,27169,27436,27507,27669,27683,27689,27426,27487,27313,27541,27293,26966,26835,26829,26674,27267,27102,27035,26698,26626,26706,26970,27156,27013,26924,26644,26781,26581,29437,29333,29245,29187,29258,29248,29272,29161,28992,29135,28822,28813,28867,29206,29221,29055,28981,29116,29197,29200,29093,29162,29058,28946,29062,29195,29209,29190,29178,29353,29233,29799,29888,29933,30076,30132,30087,30074,30062,30048,30033,29955,30018,29948,29982,29933,29907,29895,29775,29765,29764,29684,29619,29555,29608,29633,29655,29652,29458,29489,29609,29483,29528,29603,29631,29617,29724,29602,29633,29688,29708,29706,29650,29656,29682,29668,29996,29970,29588,27709,27592,27496,27582,27490,27500,27413,27536,27508,27289,27576,27455,27502,27595,27681,27661,27324,27306,27258,27194,27336,27226,27222,27428,27244,27413,27637,27505,27473,27466,27779,27556,27561,27634,27548,27611,27560,27390,27434,27621,27440,27347,28349,27777,26330,26126,26495,26332,26446,26314,26513,26460,26530,26290,26285,26729,26609,26197,26785,26493,26435,26715,26576,26230,26350,26226,26343,26202,26314,26157,26270,26188,26178,26168,26247,26229,26275,26146,26005,26111,25954,26301,26053,26604,30059,30115,30013,30341,30263,30241,30260,30220,30578,30566,30544,30531,30558,30486,30447,30538,30635,30658,30403,30565,30583,30482,30470,30867,30857,30739,30657,30340,30603,30397,30828,30764,30670,30462,30454,30334,30342,30300,30231,30359,30377,30286,30435,28816,28862,28890,28903,28979,29013,29012,28962,28979,28976,28972,28962,28927,28847,28843,28849,28824,28860,28857,28859,28839,28824,28790,28758,28766,28895,28938,28871,28710,28674,28722,28701,28733,28657,28641,28709,28563,28699,28807,28793,28697,28911,28953,28985,29065,29088,29091,29115,29055,29080,29095,29051,29065,29235,29239,29180,29123,29099,29028,29116,29173,29233,29210,29053,29103,29093,29140,29143,29151,29115,29119,29097,29071,29097,29073,29108,29097,29136,29122,28965,26916,27047,25993,26021,25847,26001,25917,25942,25888,25916,25923,25970,25931,25976,25903,25876,25797,25909,25905,26016,25981,25775,25881,25821,25822,25917,25890,25806,25838,25815,25899,27065,27086,26919,26946,29563,30362,29809,29802,30108,29889,29800,29641,28818,29157,28809,29079,29154,28730,28685,28708,29116,29573,29583,29406,29286,29254,29119,29227,29285,29006,28704,29640,29445,28301,26637,26600,26320,26452,26281,26298,26329,26514,26246,26239,26237,26411,26108,26136,26099,26037,26132,26578,26429,26083,26197,26115,26060,26178,26195,26194,26018,26044,25899,26118,26129,25922,25758,25717,25785,25851,26026,26187,25992,26629,26360,26102,27587,27617,27636,27795,27700,27828,27840,27816,27894,27895,27889,27942,27987,28082,28181,28140,28193,27943,28008,27439,27962,26740,26546,26437,26700,26563,26451,26225,26394,26305,26203,26061,27314,27279,27140,27235,27188,27192,27217,27122,27038,26954,26896,26920,27000,27057,27205,27252,27693,27142,27078,26994,27021,26778,26771,26950,27319,29655,29956,29677,29681,29849,29931,29892,29854,29515,29776,29802,29604,29784,29802,29252,29354,29300,29575,29461,29652,29563,29330,29737,29690,28957,28747,28624,28334,28724,28693,28740,28607,28396,28431,28816
35484,34960,34713,34295,34324,34669,35171,34503,32968,33179,33842,34474,33988,34948,35177,35103,34966,34971,35068,34818,34862,34735,34989,34944,34786,35154,34971,34794,34880,34389,34685,34534,34885,34835,34587,34825,34583,34889,34609,34671,34744,35045,34713,34726,34510,34582,34580,34519,34268,34778,35899,35600,35685,35606,35139,34909,32604,34863,32523,33650,33642,33664,31953,31886,31420,31563,31952,31641,31888,31582,31240,31482,31889,31974,31814,31863,31998,32134,32015,32041,31879,31652,32209,31693,31759,31554,32062,31793,32013,31737,31892,31888,31551,31581,31753,31575,31875,31531,31884,31911,32102,31535,31913,31698,31620,31549,30799,30753,30616,30750,30678,30956,30920,30692,30944,30542,30418,31028,30834,30773,30659,30556,30499,31006,30681,30518,33166,33160,33450,32930,32967,33501,33151,33589,33480,34087,33984,33034,30916,33344,30697,30500,30279,30542,29803,30140,29845,29753,29823,29521,29774,29656,29690,29505,30432,30503,31635,31070,30517,30146,30688,30654,30318,30068,30075,29714,30232,30357,30208,30350,30280,29715,33247,32899,32687,32480,32648,32133,32358,32075,32479,32275,32305,32431,32314,32207,32005,32315,32315,32115,32529,32379,32362,32557,32146,32219,32231,32010,31742,31994,32291,32304,32404,32189,32562,32543,32241,32362,32371,31942,31526,31716,31905,31926,32489,32403,31509,31527,32547,35053,34986,35010,34839,34722,34830,34833,34818,34982,34457,34707,35007,34956,34844,34958,34670,34862,34710,34818,35201,34827,34703,34595,34734,35091,34893,34872,34835,34748,34765,34592,35122,34662,34588,34046,34381,34642,34784,34632,34937,34738,34732,34232,34755,35609,35297,35261,35118,35295,35302,35345,35174,35033,34728,35090,35065,34920,33730,34031,33673,33940,33894,33743,33856,33777,33799,33637,33725,33890,33788,33804,33753,33317,33292,33091,33267,33361,33413,33483,33204,33438,33259,33269,33471,33445,33393,34113,33912,33292,33205,35652,74278,74559,73935,74116,74259,73454,74148,73962,73676,74226,74838,74183,74609,73697,74355,73822,74176,73812,74530,74156,74109,74221,74151,74540,74894,74395,73984,74052,74059,74261,73646,74102,74471,74146,74020,73803,28837,28554,28649,28908,28748,28818,28836,28628,28756,28519,28401,28691,28363,28618,28573,28335,28401,28387,28134,28292,28401,28423,28302,28333,28135,28026,28467,28373,28590,28211,28242,28193,28643,30472,30613,30568,29590,32289,32529,32071,31997,32053,31781,31591,31917,31799,31947,31624,31765,31677,31501,31375,31495,31497,31762,31428,31456,31022,31278,31019,31588,31358,31344,31785,31493,31708,31544,31648,32006,31453,27188,27243,27294,27269,27579,27307,26923,27004,26795,26982,27171,27166,27151,26969,27013,27129,26665,26674,27028,27025,26814,26652,26513,27012,27083,27068,26897,26895,27149,26877,26902,27009,26672,26950,26644,26728,27195,26729,26822,26974,26828,26906,26635,26807,26769,26825,26626,26926,26697,26814,26625,26619,26513,26385,26492,26748,26639,26462,26545,26189,26598,26580,26293,26211,26292,26220,26246,26283,25902,26133,26473,26246,26283,26032,26326,26311,26159,26361,26142,26291,26515,30259,30077,30095,30083,29953,29887,30207,30201,29983,29865,30150,29947,30230,30050,29952,29967,29835,29950,30135,30044,29705,29959,29761,30185,30177,30613,30331,29855,29889,29902,30417,30522,30649,30511,30611,30663,30476,30020,30808,30244,27419,27293,26754,26359,26564,26695,26279,26619,26796,26917,27111,26190,26974,26930,27289,26561,26420,26525,26517,26725,26869,26690,26764,26780,27128,27113,26571,26614,26704,26455,26517,27165,26858,27276,27028,26669,26407,26568,26867,26668,26442,26650,26569,26848,26762,26630,26653,26662,26650,26623,26728,27075,26650,26619,26632,26709,26929,26851,26774,26701,26710,26749,26725,26603,26758,26787,26754,26805,26650,26540,26581,27127,26885,26648,26712,26661,26643,26456,26529,26316,26443,26415,26648,30476,30367,30471,30557,30304,30155,29981,30053,30199,30052,30019,30141,29773,29967,29970,29923,30217,30146,29775,29743,29759,29625,29452,29525,29370,29540,29653,29427,29499,29220,29238,29372,29361,29588,29091,29357,29118,29578,29261,29306,27406,27449,27065,27195,27599,27511,27228,26926,27190,27368,27171,27075,26845,26870,27382,27182,27060,26948,27234,27026,27245,27093,26976,27103,26996,26914,27057,27103,27203,26734,26756,26845,26855,26692,26706,26808,26742,26692,26766,27357,27041,27667,31789,31767,32209,31424,31348,31505,31605,31762,31615,31652,31326,31369,31303,31359,31541,31711,31338,31697,31178,31416,31288,31410,31736,31596,31857,32081,31643,31134,31060,31666,31909,31921,31502,31628,31538,31390,31653,32150,32122,31957,31996,32020,31858,31901,31826,32063,31611,31715,31708,31610,31747,31632,31430,31636,31654,31513,31890,31628,31612,31633,31859,31318,31447,31677,31388,31532,31392,31367,31452,31411,31715,31462,31396,31244,31433,31397,31260,30166,30081,30109,30066,30001,30013,29900,29948,29905,29928,30171,30092,30191,30138,29992,30033,30114,30152,30060,30087,30165,30076,30240,30190,30043,30004,30275,30368,30297,30169,30157,30074,30064,30209,30162,30064,30262,33574,33596,33352,33530,33505,33322,33355,33207,33680,33688,33582,33521,33390,33348,33270,33818,33671,33504,33460,33376,33241,33682,33499,33619,33512,33277,33217,33166,33105,33105,32972,32819,32731,33059,32935,33219,33365,33183,33135,33005,33154,33705,33191,33153,27193,27184,27438,27513,27554,27679,27706,27430,27486,27303,27552,27311,26966,26856,26843,26676,27278,27102,27030,26711,26554,26710,26990,27173,27025,26921,26641,26700,26515,29440,29344,29252,29137,29257,29229,29286,29171,28993,29137,28833,28811,28867,29204,29187,29073,28970,29071,29186,29196,29085,29165,29069,28952,29072,29199,29209,29189,29191,29354,29238,29785,29891,29929,30076,30133,30091,30063,30066,30052,30034,29949,30019,29954,29965,29938,29900,29894,29777,29766,29767,29684,29620,29558,29605,29632,29657,29635,29457,29495,29610,29483,29530,29602,29628,29618,29712,29610,29635,29689,29700,29704,29647,29656,29684,29669,29999,29969,29588,27713,27596,27508,27589,27497,27497,27405,27533,27519,27303,27532,27461,27511,27600,27689,27585,27338,27303,27265,27146,27350,27231,27235,27431,27256,27417,27637,27512,27471,27474,27779,27562,27561,27644,27550,27616,27547,27362,27434,27626,27406,27342,28354,27777,26339,26128,26502,26343,26459,26306,26494,26478,26549,26276,26294,26732,26629,26169,26745,26510,26456,26733,26595,26246,26351,26237,26363,26217,26252,26169,26265,26208,26186,26177,26151,26242,26285,26093,25996,26086,25965,26314,26054,26615,30060,30114,30015,30342,30266,30237,30258,30216,30559,30565,30550,30538,30566,30460,30461,30544,30637,30654,30408,30573,30589,30491,30477,30870,30863,30742,30658,30330,30604,30401,30828,30771,30669,30468,30453,30345,30347,30272,30235,30367,30371,30296,30432,28822,28864,28887,28906,28975,29019,29012,28963,28980,28979,28976,28964,28915,28850,28848,28851,28827,28865,28859,28853,28830,28829,28785,28754,28773,28898,28939,28872,28709,28677,28708,28701,28713,28660,28650,28709,28563,28704,28809,28775,28696,28911,28958,28984,29065,29081,29081,29106,29056,29088,29094,29052,29066,29234,29234,29177,29123,29101,29031,29116,29174,29240,29208,29054,29103,29096,29146,29142,29143,29121,29118,29096,29070,29098,29078,29102,29101,29134,29124,28969,26918,27048,25996,26023,25852,26000,25914,25942,25888,25901,25925,25976,25933,25983,25904,25876,25800,25910,25908,26023,25971,25777,25861,25826,25820,25921,25892,25809,25839,25814,25903,27064,27086,26920,26942,29581,30370,29814,29816,30127,29910,29817,29638,28805,29177,28842,29091,29187,28740,28562,28687,29138,29585,29581,29422,29218,29273,29139,29168,29240,29003,28705,29648,29462,28195,26651,26604,26332,26458,26290,26308,26341,26525,26243,26245,26249,26390,26109,26091,26091,26032,26087,26580,26431,26089,26211,26122,26065,26189,26204,26199,26013,26055,25873,26046,26118,25922,25752,25713,25754,25860,26025,26190,26002,26624,26360,26112,27586,27612,27634,27786,27702,27826,27827,27815,27898,27896,27890,27945,27990,28080,28177,28143,28198,27943,28005,27429,27960,26745,26541,26441,26699,26539,26448,26227,26387,26310,26206,26062,27309,27284,27139,27237,27188,27195,27221,27111,27038,26958,26900,26925,27004,27063,27209,27251,27691,27139,27078,27004,27011,26759,26742,26950,27320,29645,29963,29685,29689,29860,29878,29899,29833,29522,29784,29812,29612,29791,29772,29249,29311,29308,29584,29467,29658,29558,29324,29743,29703,28923,28754,28646,28322,28725,28693,28746,28608,28406,28436,28819
35479,34884,34723,34313,34338,34684,35179,34514,33013,33202,33870,34477,34019,34862,35200,34982,34988,34985,35099,34827,34800,34749,34892,34952,34820,35170,34990,34811,34898,34404,34706,34549,34900,34874,34602,34693,34610,34918,34610,34672,34738,34936,34709,34745,34511,34500,34596,34543,34248,34786,35907,35634,35701,35612,35126,34903,32599,34841,32524,33661,33629,33686,31973,31875,31413,31568,31970,31680,31920,31582,31242,31489,31908,31916,31812,31867,32026,32153,32024,32060,31894,31691,32143,31666,31787,31584,31995,31820,31942,31744,31921,31897,31506,31591,31772,31599,31894,31561,31913,31921,32007,31488,31926,31698,31641,31511,30822,30780,30643,30774,30588,30874,30942,30722,30961,30568,30421,31032,30847,30674,30673,30582,30529,31010,30708,30541,33205,33175,33407,32928,32972,33519,33164,33595,33496,34092,33994,33051,30897,33366,30728,30493,30297,30585,29800,30150,29851,29765,29841,29539,29787,29669,29717,29505,30446,30420,31652,31062,30530,30160,30698,30665,30325,30085,30082,29729,30235,30337,30136,30325,30223,29734,33262,32916,32686,32449,32649,32139,32358,32102,32489,32278,32262,32445,32293,32191,32023,32342,32342,32136,32536,32353,32378,32547,32103,32246,32237,31969,31774,32016,32143,32297,32413,32152,32572,32563,32184,32375,32229,31902,31555,31748,31915,31902,32496,32439,31519,31519,32453,35015,34987,35026,34844,34751,34825,34848,34832,34914,34431,34730,35012,34969,34860,34976,34734,34875,34749,34842,35204,34752,34725,34626,34651,34911,34896,34877,34847,34758,34777,34538,35094,34694,34606,33985,34401,34651,34798,34645,34947,34750,34739,34241,34755,35613,35305,35277,35135,35313,35319,35355,35214,35021,34736,35028,35087,34924,33638,34045,33668,33950,33891,33762,33860,33787,33826,33655,33738,33811,33808,33805,33762,33331,33229,33108,33262,33381,33429,33513,33175,33447,33273,33265,33391,33457,33410,34119,33901,33306,33223,35581,74306,74591,73962,74154,74294,73441,74186,73958,73690,74255,74567,74205,74637,73712,74397,73862,74212,73835,74552,74187,74140,73949,74183,74565,74913,74425,74032,74048,74083,74275,73685,74104,74498,74195,73763,73841,28858,28572,28671,28928,28770,28772,28856,28572,28683,28543,28424,28718,28364,28542,28588,28353,28344,28411,28099,28276,28324,28449,28309,28360,28149,28003,28480,28390,28575,28191,28193,28220,28659,30476,30615,30578,29608,32285,32545,32058,32004,32064,31744,31594,31920,31811,31956,31649,31681,31695,31498,31382,31495,31519,31694,31349,31472,31031,31265,30999,31588,31344,31357,31780,31476,31721,31559,31581,31982,31487,27205,27260,27312,27235,27569,27321,26930,26950,26802,26917,27173,27182,27172,26990,27027,27078,26679,26696,27039,27044,26831,26671,26537,27027,27021,27084,26909,26906,27140,26800,26919,26950,26640,26959,26616,26750,27205,26731,26844,26970,26822,26921,26643,26797,26791,26834,26631,26861,26708,26831,26628,26628,26454,26402,26507,26756,26636,26423,26513,26209,26614,26592,26304,26223,26280,26232,26259,26289,25911,26152,26479,26262,26296,26047,26330,26312,26174,26368,26151,26305,26523,30270,30103,30095,30085,29960,29901,30223,30223,30021,29840,30170,29974,30245,30065,29953,29978,29841,29842,30050,30058,29721,29970,29729,30122,30196,30638,30301,29808,29903,29918,30441,30538,30660,30538,30633,30679,30484,30037,30817,30249,27341,27320,26783,26383,26572,26620,26287,26646,26807,26924,27137,26196,26999,26950,27185,26595,26388,26454,26541,26702,26888,26709,26783,26792,27123,27065,26589,26621,26697,26474,26506,27175,26785,27283,27030,26692,26372,26578,26808,26688,26477,26601,26602,26813,26774,26630,26659,26671,26655,26632,26678,27082,26651,26624,26640,26720,26925,26857,26783,26706,26672,26738,26713,26605,26747,26777,26761,26813,26650,26526,26549,27107,26837,26598,26720,26664,26612,26459,26548,26304,26454,26416,26659,30437,30364,30482,30564,30275,30166,29964,30058,30153,30056,30027,30152,29785,29918,29973,29927,30229,30153,29743,29751,29756,29631,29433,29536,29378,29549,29653,29429,29515,29200,29248,29379,29370,29600,29086,29367,29128,29546,29270,29308,27423,27436,27076,27199,27613,27449,27226,26918,27112,27382,27188,27096,26847,26881,27333,27207,27059,26911,27248,27045,27195,27111,26989,27036,27024,26927,27075,27119,27197,26723,26761,26858,26789,26674,26736,26822,26753,26713,26786,27354,27054,27665,31801,31768,32226,31385,31350,31523,31620,31791,31628,31561,31328,31374,31318,31367,31552,31681,31353,31681,31186,31405,31300,31419,31750,31614,31874,31972,31627,31160,31063,31664,31895,31934,31517,31642,31548,31377,31657,32164,32129,31971,32013,32030,31843,31916,31843,31964,31594,31712,31711,31622,31766,31632,31447,31620,31674,31524,31900,31616,31617,31651,31872,31323,31457,31687,31394,31551,31397,31380,31466,31396,31725,31473,31410,31263,31325,31409,31269,30166,30078,30118,30068,29999,30004,29908,29957,29900,29934,30167,30087,30177,30141,29996,30036,30120,30149,30056,30083,30150,30074,30239,30193,30058,30006,30281,30373,30296,30160,30156,30082,30065,30209,30164,30061,30261,33577,33598,33365,33533,33516,33317,33355,33221,33679,33692,33585,33520,33389,33344,33273,33825,33674,33503,33428,33375,33248,33685,33505,33611,33510,33280,33222,33176,33065,33109,32970,32826,32741,33057,32937,33227,33364,33189,33153,33016,33155,33713,33197,33159,27192,27193,27435,27530,27483,27623,27720,27437,27505,27308,27555,27311,26972,26883,26847,26686,27245,27101,27027,26721,26508,26718,27007,27189,27042,26918,26656,26632,26462,29443,29356,29266,29127,29261,29225,29295,29174,28990,29144,28839,28824,28866,29162,29121,29091,28979,28987,29178,29208,29089,29185,29078,28971,29090,29199,29211,29195,29208,29361,29241,29764,29893,29925,30078,30134,30090,30057,30067,30054,30037,29944,30022,29955,29953,29944,29897,29896,29775,29768,29770,29681,29618,29561,29605,29633,29657,29620,29459,29495,29611,29487,29528,29602,29635,29617,29706,29608,29636,29685,29688,29692,29646,29658,29689,29673,30000,29972,29590,27717,27603,27516,27594,27500,27498,27400,27530,27528,27314,27466,27467,27518,27615,27701,27500,27344,27298,27278,27122,27361,27224,27250,27443,27267,27419,27638,27512,27475,27480,27776,27567,27563,27648,27554,27618,27548,27342,27439,27631,27391,27340,28358,27780,26313,26139,26506,26354,26479,26302,26484,26502,26571,26260,26303,26690,26645,26140,26636,26529,26475,26754,26615,26268,26364,26252,26381,26234,26231,26187,26258,26225,26194,26187,26112,26258,26299,26076,25990,26071,25970,26330,26068,26627,30065,30115,30018,30349,30274,30241,30263,30214,30549,30574,30553,30546,30571,30450,30461,30545,30627,30631,30410,30584,30588,30495,30480,30871,30866,30748,30642,30332,30598,30411,30827,30777,30679,30473,30461,30347,30354,30263,30243,30372,30364,30295,30419,28824,28868,28889,28909,28965,29020,29020,28965,28987,28986,28977,28968,28907,28851,28849,28856,28835,28867,28865,28839,28824,28831,28778,28754,28772,28899,28941,28870,28709,28677,28698,28704,28693,28666,28651,28697,28561,28707,28812,28760,28698,28916,28960,28977,29067,29081,29077,29094,29058,29086,29095,29051,29065,29231,29237,29170,29124,29102,29031,29110,29177,29235,29208,29050,29096,29094,29145,29144,29143,29120,29121,29098,29072,29098,29078,29091,29099,29136,29127,28961,26915,27046,26000,26026,25849,26006,25916,25945,25894,25896,25928,25977,25935,25982,25910,25879,25799,25909,25909,26026,25974,25779,25842,25825,25818,25915,25894,25808,25841,25815,25904,27062,27089,26917,26937,29591,30378,29813,29823,30141,29938,29840,29631,28813,29187,28877,29099,29217,28771,28474,28691,29155,29598,29564,29430,29136,29291,29156,29128,29164,29012,28703,29647,29474,28116,26655,26614,26340,26468,26298,26320,26351,26527,26247,26252,26261,26327,26111,26070,26087,26030,26066,26582,26436,26093,26218,26131,26070,26201,26209,26214,26012,26065,25865,25983,26055,25923,25753,25721,25741,25870,26028,26201,26005,26627,26359,26122,27591,27615,27631,27779,27704,27825,27815,27813,27895,27898,27887,27949,27993,28079,28179,28148,28196,27942,28012,27416,27964,26749,26537,26446,26699,26518,26448,26231,26357,26315,26207,26070,27309,27282,27141,27235,27191,27198,27224,27092,27037,26970,26904,26928,27008,27067,27208,27252,27702,27140,27079,27006,26995,26751,26724,26946,27323,29645,29961,29691,29696,29869,29813,29910,29832,29526,29796,29822,29620,29795,29712,29248,29297,29316,29593,29478,29656,29563,29326,29751,29711,28912,28768,28664,28335,28726,28695,28752,28609,28416,28445,28827
35476,34747,34730,34339,34344,34696,35173,34534,33051,33223,33890,34490,34054,34809,35229,34812,35015,34991,35123,34834,34787,34781,34726,34943,34855,35148,34992,34835,34924,34426,34729,34560,34911,34891,34615,34504,34657,34935,34616,34604,34746,34773,34714,34765,34499,34455,34627,34565,34242,34777,35911,35670,35700,35632,35134,34896,32597,34830,32535,33659,33630,33716,31967,31819,31416,31574,31987,31702,31942,31585,31254,31492,31935,31833,31819,31877,32048,32168,32027,32081,31915,31725,32046,31657,31803,31604,31893,31832,31834,31757,31945,31903,31478,31592,31796,31626,31875,31581,31951,31924,31902,31462,31951,31701,31660,31494,30844,30801,30669,30810,30527,30761,30960,30746,30974,30587,30430,31040,30866,30571,30696,30597,30543,30944,30725,30553,33221,33181,33307,32938,32989,33527,33184,33549,33507,34095,34006,33079,30840,33387,30755,30490,30304,30627,29792,30160,29861,29774,29849,29581,29806,29676,29752,29503,30460,30335,31666,31043,30540,30167,30705,30680,30346,30088,30098,29741,30242,30268,30095,30281,30136,29745,33258,32927,32663,32422,32622,32155,32324,32135,32506,32289,32229,32445,32255,32187,32052,32359,32359,32159,32551,32337,32395,32498,32067,32265,32229,31940,31821,32038,32037,32295,32426,32138,32580,32576,32169,32385,32112,31890,31591,31778,31939,31899,32504,32456,31523,31501,32355,34912,34984,35040,34838,34774,34827,34866,34846,34747,34434,34763,35017,34975,34877,34988,34781,34889,34796,34857,35210,34545,34746,34665,34635,34715,34892,34887,34865,34771,34782,34538,34960,34723,34619,33975,34402,34665,34811,34644,34956,34760,34755,34253,34771,35607,35328,35309,35150,35331,35315,35369,35237,35013,34736,34903,35097,34928,33595,34055,33673,33970,33893,33783,33869,33802,33842,33667,33756,33698,33815,33801,33790,33340,33196,33128,33284,33387,33447,33533,33151,33408,33285,33269,33342,33482,33390,34137,33903,33328,33241,35493,74336,74618,73995,74157,74327,73427,74221,73959,73717,74284,74282,74213,74673,73713,74449,73896,74234,73883,74564,74202,74165,73813,74221,74598,74940,74464,74076,74055,74097,74292,73706,74111,74520,74231,73645,73879,28875,28588,28685,28952,28799,28735,28876,28534,28614,28563,28442,28745,28367,28481,28606,28381,28295,28428,28069,28277,28276,28473,28320,28381,28167,28000,28497,28412,28528,28167,28142,28240,28681,30480,30621,30583,29614,32278,32553,32014,32022,32073,31720,31601,31932,31820,31967,31666,31631,31708,31505,31412,31487,31543,31610,31278,31492,31040,31263,30987,31595,31328,31374,31780,31470,31725,31583,31510,31965,31513,27220,27284,27325,27177,27533,27340,26950,26903,26816,26872,27156,27189,27187,27014,27046,27004,26679,26710,27052,27053,26844,26692,26548,27045,26947,27099,26923,26922,27105,26726,26930,26877,26621,26975,26599,26772,27215,26734,26874,26967,26829,26937,26663,26800,26809,26842,26628,26759,26720,26839,26638,26639,26420,26416,26520,26769,26591,26408,26500,26240,26624,26604,26313,26236,26278,26249,26264,26300,25914,26174,26492,26277,26313,26068,26343,26315,26184,26375,26165,26312,26539,30276,30128,30100,30094,29977,29922,30235,30245,30052,29831,30185,30004,30226,30089,29961,29976,29852,29759,29948,30079,29753,29972,29727,30031,30225,30659,30294,29793,29912,29926,30470,30557,30685,30565,30644,30698,30490,30058,30823,30242,27277,27343,26813,26419,26585,26555,26296,26666,26816,26938,27159,26210,27031,26959,27070,26620,26369,26391,26572,26687,26908,26729,26798,26811,27128,26988,26621,26635,26644,26504,26501,27191,26711,27305,27044,26716,26333,26594,26757,26707,26505,26558,26623,26766,26780,26632,26668,26677,26663,26634,26638,27091,26644,26624,26646,26727,26901,26873,26788,26700,26633,26735,26709,26614,26712,26784,26775,26820,26646,26525,26536,27096,26802,26560,26715,26641,26563,26469,26563,26303,26462,26416,26662,30395,30362,30486,30572,30252,30173,29946,30066,30115,30072,30029,30160,29796,29851,29988,29939,30244,30157,29724,29765,29747,29643,29427,29549,29387,29564,29647,29435,29522,29182,29255,29393,29374,29611,29096,29382,29146,29520,29282,29316,27436,27444,27083,27209,27621,27368,27233,26927,27056,27399,27210,27112,26847,26896,27306,27223,27068,26884,27263,27059,27108,27122,26980,26952,27038,26948,27093,27131,27149,26722,26763,26887,26705,26669,26754,26816,26776,26734,26809,27353,27075,27665,31806,31760,32222,31352,31372,31542,31644,31797,31614,31530,31344,31379,31327,31379,31552,31578,31372,31669,31194,31413,31310,31422,31763,31596,31898,31846,31625,31179,31086,31679,31876,31938,31517,31656,31555,31376,31668,32176,32139,31976,32033,32036,31830,31930,31861,31866,31588,31705,31710,31642,31782,31613,31462,31607,31697,31542,31910,31608,31631,31661,31877,31332,31451,31692,31397,31563,31375,31392,31484,31386,31738,31473,31433,31283,31264,31414,31278,30170,30081,30125,30069,29994,29976,29913,29953,29909,29938,30166,30079,30173,30145,30004,30043,30125,30144,30049,30079,30136,30071,30244,30196,30061,30001,30288,30372,30286,30157,30153,30095,30064,30208,30175,30053,30253,33585,33609,33369,33534,33519,33320,33372,33222,33677,33695,33586,33519,33389,33350,33278,33826,33673,33501,33391,33374,33258,33678,33511,33619,33514,33288,33227,33183,33039,33114,32967,32830,32747,33037,32950,33232,33355,33198,33158,33024,33159,33721,33193,33161,27188,27182,27433,27556,27447,27522,27733,27445,27514,27303,27540,27300,26978,26919,26859,26703,27139,27114,27028,26732,26475,26729,27025,27211,27057,26920,26674,26600,26425,29433,29363,29269,29130,29263,29232,29293,29182,28995,29134,28839,28827,28870,29093,29055,29097,28991,28922,29181,29228,29093,29199,29094,28980,29096,29197,29205,29203,29215,29364,29247,29747,29898,29923,30081,30137,30091,30058,30071,30055,30038,29945,30014,29959,29952,29944,29896,29900,29776,29772,29773,29681,29622,29564,29608,29636,29661,29611,29463,29499,29612,29489,29530,29606,29635,29619,29702,29615,29637,29677,29673,29680,29652,29660,29688,29677,30001,29974,29594,27722,27613,27521,27567,27497,27497,27402,27533,27539,27325,27420,27473,27529,27625,27707,27453,27343,27297,27295,27117,27368,27217,27265,27449,27281,27424,27641,27517,27475,27488,27777,27574,27568,27646,27560,27630,27555,27330,27444,27630,27388,27340,28363,27781,26224,26148,26466,26361,26494,26304,26474,26524,26590,26250,26319,26579,26635,26107,26473,26547,26495,26772,26631,26284,26369,26268,26401,26239,26213,26200,26255,26241,26206,26194,26093,26269,26310,26066,25982,26056,25981,26345,26086,26638,30067,30121,30020,30350,30275,30244,30259,30213,30545,30578,30564,30550,30570,30439,30468,30550,30609,30608,30405,30590,30582,30501,30485,30874,30866,30751,30611,30338,30594,30419,30827,30773,30686,30481,30458,30355,30361,30255,30247,30376,30362,30302,30392,28824,28871,28888,28910,28960,29018,29025,28969,28988,28987,28978,28970,28899,28854,28854,28857,28833,28866,28865,28820,28822,28830,28777,28752,28775,28901,28942,28873,28708,28681,28695,28708,28683,28665,28654,28675,28562,28709,28814,28754,28696,28917,28960,28974,29070,29078,29075,29089,29059,29086,29097,29057,29067,29226,29240,29162,29126,29100,29032,29100,29177,29234,29211,29052,29084,29096,29142,29140,29141,29115,29125,29097,29070,29095,29079,29083,29101,29137,29131,28953,26918,27051,26002,26031,25852,26003,25914,25943,25891,25893,25931,25983,25928,25981,25912,25883,25802,25912,25911,26030,25974,25782,25830,25827,25818,25906,25897,25808,25836,25819,25907,27065,27090,26919,26931,29606,30385,29808,29826,30154,29959,29864,29627,28826,29202,28895,29106,29244,28798,28428,28706,29182,29613,29514,29417,29068,29306,29161,29117,29079,29021,28701,29650,29461,28072,26634,26629,26351,26475,26311,26331,26363,26490,26249,26264,26270,26256,26116,26057,26087,26035,26059,26561,26434,26106,26231,26135,26070,26210,26218,26225,26014,26076,25859,25949,25987,25926,25752,25731,25736,25876,26028,26205,26013,26628,26360,26128,27593,27610,27635,27775,27706,27829,27814,27817,27890,27901,27886,27948,27989,28080,28180,28144,28197,27946,28006,27406,27970,26750,26535,26450,26702,26506,26449,26233,26325,26321,26207,26075,27308,27285,27147,27233,27193,27201,27227,27071,27039,26967,26905,26910,27014,27070,27210,27250,27695,27142,27078,27009,26967,26747,26711,26948,27329,29642,29958,29704,29704,29881,29760,29921,29839,29530,29796,29830,29629,29809,29645,29242,29295,29321,29584,29481,29633,29570,29325,29758,29727,28909,28771,28676,28346,28734,28705,28753,28609,28428,28462,28832
35479,34673,34745,34360,34354,34681,35110,34550,33081,33234,33920,34508,34085,34781,35246,34732,35037,34990,35147,34830,34796,34812,34610,34940,34882,35001,34954,34853,34955,34447,34751,34555,34852,34889,34628,34419,34708,34954,34629,34437,34747,34672,34706,34790,34498,34425,34643,34586,34251,34773,35929,35708,35685,35655,35157,34909,32594,34835,32552,33658,33638,33735,31915,31728,31430,31574,32016,31727,31965,31589,31271,31490,31960,31740,31835,31892,32069,32178,32025,32109,31935,31746,31960,31656,31808,31633,31793,31853,31731,31784,31960,31854,31477,31586,31813,31660,31810,31584,31976,31921,31807,31459,31976,31705,31684,31486,30869,30813,30692,30837,30496,30653,30933,30765,30999,30599,30438,31051,30883,30488,30720,30600,30530,30858,30750,30573,33246,33175,33177,32962,33006,33492,33210,33454,33518,34100,34011,33112,30749,33397,30780,30483,30314,30657,29791,30169,29857,29788,29862,29621,29824,29691,29780,29496,30471,30270,31672,31041,30549,30176,30708,30694,30353,30094,30121,29757,30245,30167,30082,30205,30053,29744,33257,32929,32607,32397,32518,32184,32278,32170,32511,32312,32217,32447,32242,32201,32077,32380,32380,32188,32559,32329,32412,32401,32064,32287,32205,31930,31867,32053,31998,32310,32421,32141,32595,32582,32170,32395,32071,31896,31626,31799,31964,31909,32509,32477,31525,31487,32307,34816,35001,35054,34836,34786,34846,34879,34861,34616,34458,34783,34956,34922,34890,34999,34819,34902,34837,34872,35199,34387,34761,34692,34659,34634,34893,34903,34878,34786,34793,34561,34759,34754,34614,33975,34401,34672,34817,34636,34955,34775,34760,34276,34768,35557,35355,35346,35161,35358,35297,35371,35238,35007,34747,34807,35102,34938,33591,34071,33676,33985,33898,33802,33877,33816,33863,33664,33773,33631,33807,33800,33803,33349,33189,33149,33295,33407,33463,33552,33144,33303,33295,33284,33314,33513,33322,34147,33914,33350,33263,35467,74358,74569,74016,74163,74269,73428,74247,73971,73747,74317,74131,74203,74698,73714,74483,73946,74254,73939,74587,74210,74200,73771,74267,74628,74952,74499,74092,74089,74119,74313,73703,74117,74538,74265,73603,73908,28890,28612,28708,28972,28814,28713,28895,28495,28560,28582,28450,28761,28396,28445,28621,28395,28251,28459,28047,28276,28230,28493,28340,28391,28192,28005,28504,28440,28468,28152,28099,28256,28698,30484,30631,30597,29583,32273,32567,31946,32045,32085,31691,31613,31952,31820,31978,31680,31587,31728,31516,31437,31484,31574,31536,31231,31505,31056,31267,30978,31601,31317,31385,31791,31456,31704,31598,31447,31951,31527,27237,27310,27344,27109,27480,27354,26972,26878,26838,26832,27112,27197,27203,27028,27058,26923,26692,26735,27065,27075,26862,26703,26555,27059,26877,27110,26935,26935,27043,26653,26943,26825,26604,26986,26595,26791,27224,26740,26898,26977,26840,26930,26673,26804,26826,26851,26634,26677,26728,26853,26647,26653,26393,26425,26533,26790,26494,26402,26512,26260,26637,26609,26319,26252,26288,26256,26273,26315,25912,26182,26510,26293,26322,26069,26344,26333,26196,26391,26166,26330,26556,30293,30131,30110,30104,30000,29949,30234,30260,30072,29855,30200,30029,30146,30115,29963,29982,29874,29712,29835,30097,29788,29989,29754,29948,30243,30669,30308,29805,29924,29925,30504,30577,30710,30592,30656,30729,30491,30083,30810,30238,27228,27361,26838,26442,26602,26497,26307,26695,26831,26949,27186,26226,27055,26968,26995,26652,26366,26343,26601,26668,26933,26752,26818,26832,27138,26904,26641,26639,26565,26529,26512,27215,26648,27319,27066,26742,26309,26606,26730,26724,26529,26526,26646,26732,26789,26637,26683,26690,26662,26635,26625,27101,26637,26625,26656,26739,26861,26876,26800,26714,26604,26744,26718,26619,26665,26783,26782,26793,26649,26522,26536,27089,26775,26548,26696,26592,26513,26472,26574,26316,26456,26420,26671,30347,30365,30490,30568,30241,30178,29947,30076,30095,30072,30028,30167,29814,29797,29996,29953,30247,30158,29712,29777,29742,29655,29412,29561,29389,29576,29652,29436,29534,29161,29269,29391,29375,29621,29116,29395,29150,29497,29295,29316,27456,27435,27088,27228,27626,27297,27227,26957,27020,27412,27233,27130,26858,26916,27297,27248,27065,26870,27284,27071,27020,27122,26924,26888,27055,26973,27110,27103,27071,26733,26763,26902,26632,26678,26760,26819,26798,26753,26826,27358,27101,27675,31815,31761,32119,31338,31383,31517,31664,31786,31604,31510,31355,31391,31339,31397,31549,31486,31399,31665,31209,31427,31323,31407,31771,31446,31922,31762,31626,31193,31107,31703,31872,31951,31477,31665,31557,31379,31679,32184,32148,31971,32044,32052,31826,31942,31871,31815,31589,31703,31729,31652,31792,31606,31473,31601,31700,31553,31918,31600,31650,31666,31891,31334,31443,31704,31415,31593,31312,31404,31498,31377,31746,31471,31448,31301,31225,31427,31292,30174,30089,30135,30079,29990,29960,29922,29947,29918,29948,30167,30075,30165,30151,30005,30054,30131,30135,30049,30075,30125,30064,30254,30205,30066,30001,30290,30372,30281,30156,30145,30103,30065,30212,30185,30049,30238,33585,33613,33370,33542,33520,33329,33382,33228,33680,33703,33590,33528,33392,33354,33282,33827,33685,33498,33368,33373,33256,33671,33514,33633,33513,33298,33236,33184,33031,33126,32969,32836,32755,32990,32958,33229,33321,33208,33164,33033,33160,33701,33186,33159,27188,27187,27437,27585,27443,27426,27744,27458,27522,27317,27461,27301,26996,26941,26877,26708,27015,27134,27041,26743,26462,26738,27042,27195,27073,26927,26690,26596,26402,29400,29368,29279,29134,29260,29248,29295,29182,29005,29113,28855,28839,28880,29034,29021,29108,29005,28904,29182,29237,29109,29210,29103,28989,29103,29186,29215,29203,29224,29365,29253,29744,29896,29928,30084,30136,30091,30058,30073,30058,30043,29948,29998,29958,29950,29948,29899,29901,29779,29775,29771,29682,29622,29567,29611,29635,29663,29605,29465,29504,29614,29490,29531,29609,29635,29620,29703,29617,29634,29667,29668,29668,29651,29659,29692,29679,30004,29976,29592,27727,27621,27531,27521,27491,27498,27402,27535,27550,27333,27393,27483,27539,27614,27692,27433,27343,27302,27310,27127,27379,27214,27281,27460,27292,27434,27640,27520,27475,27494,27782,27577,27566,27648,27565,27629,27562,27327,27448,27628,27400,27344,28371,27782,26147,26163,26370,26379,26511,26314,26465,26543,26612,26261,26327,26444,26568,26079,26393,26560,26513,26783,26653,26304,26385,26290,26420,26244,26195,26218,26248,26257,26220,26210,26082,26283,26323,26058,25980,26043,25996,26357,26100,26647,30071,30126,30024,30354,30279,30237,30239,30217,30544,30582,30569,30554,30570,30444,30473,30553,30580,30585,30410,30597,30574,30508,30488,30875,30872,30761,30584,30343,30587,30419,30833,30780,30687,30484,30461,30359,30368,30260,30253,30385,30361,30305,30363,28826,28867,28893,28911,28957,29018,29022,28974,28989,28984,28980,28975,28890,28854,28856,28858,28836,28871,28868,28799,28821,28830,28773,28746,28782,28904,28944,28869,28708,28684,28691,28708,28672,28667,28662,28655,28564,28709,28819,28746,28694,28916,28958,28963,29069,29082,29079,29085,29059,29085,29096,29057,29075,29230,29236,29151,29124,29102,29032,29092,29177,29237,29214,29051,29073,29101,29137,29147,29142,29117,29122,29098,29074,29086,29079,29079,29101,29137,29131,28941,26919,27051,26010,26037,25854,26010,25915,25939,25897,25897,25933,25986,25913,25986,25914,25881,25803,25911,25912,26036,25979,25784,25827,25830,25825,25890,25889,25811,25838,25827,25909,27061,27094,26924,26925,29619,30395,29808,29824,30166,29977,29883,29626,28843,29214,28904,29109,29272,28834,28420,28728,29211,29628,29443,29362,29028,29320,29164,29123,29002,29032,28700,29651,29392,28061,26585,26639,26365,26485,26325,26342,26375,26415,26247,26275,26278,26208,26116,26048,26099,26042,26048,26522,26433,26113,26237,26136,26070,26201,26226,26236,26026,26091,25850,25936,25934,25924,25757,25740,25736,25883,26030,26210,26025,26629,26361,26131,27596,27610,27632,27772,27713,27828,27806,27819,27877,27905,27889,27951,27990,28083,28186,28145,28199,27945,28008,27397,27967,26753,26537,26455,26703,26497,26451,26241,26297,26330,26208,26086,27312,27282,27146,27235,27193,27207,27227,27061,27041,26973,26906,26882,27020,27076,27216,27252,27699,27143,27080,27014,26939,26744,26709,26948,27332,29641,29957,29709,29705,29892,29744,29927,29854,29532,29780,29839,29634,29816,29607,29240,29304,29329,29548,29480,29571,29582,29331,29753,29736,28912,28776,28686,28366,28734,28709,28746,28614,28435,28481,28838
35487,34635,34756,34384,34369,34607,34988,34561,33098,33218,33936,34523,34100,34769,35210,34690,35065,34978,35168,34821,34830,34829,34554,34942,34905,34811,34802,34870,34978,34478,34777,34550,34695,34804,34619,34385,34755,34977,34645,34303,34752,34636,34715,34820,34505,34420,34655,34603,34262,34773,35940,35756,35689,35673,35196,34923,32595,34851,32561,33656,33666,33756,31819,31622,31453,31573,32042,31735,31994,31598,31302,31496,31980,31661,31851,31905,32079,32189,32020,32134,31965,31756,31878,31668,31809,31659,31713,31877,31650,31803,31980,31769,31482,31591,31830,31702,31708,31589,32006,31925,31735,31469,31997,31717,31704,31502,30888,30841,30722,30867,30483,30571,30863,30786,30992,30615,30441,31058,30895,30437,30732,30604,30462,30758,30770,30595,33258,33174,33063,33003,33021,33392,33228,33330,33528,34100,34021,33131,30650,33415,30796,30503,30324,30688,29799,30176,29848,29811,29871,29640,29828,29713,29802,29494,30472,30243,31659,31038,30559,30184,30722,30704,30362,30100,30132,29768,30252,30071,30081,30121,29998,29725,33236,32946,32531,32391,32424,32198,32247,32191,32529,32341,32217,32433,32242,32220,32107,32398,32398,32219,32563,32334,32435,32315,32063,32312,32172,31946,31911,32069,31986,32325,32409,32157,32606,32593,32182,32407,32048,31924,31654,31793,31990,31933,32509,32491,31537,31480,32301,34765,35006,35063,34827,34795,34856,34895,34872,34560,34496,34799,34778,34762,34884,35013,34846,34925,34865,34872,35112,34342,34766,34714,34694,34628,34893,34924,34890,34792,34805,34604,34639,34783,34609,33992,34397,34688,34831,34639,34950,34781,34767,34303,34785,35462,35370,35373,35172,35376,35292,35366,35227,35013,34760,34781,35113,34944,33587,34083,33681,34002,33917,33817,33884,33826,33882,33651,33800,33605,33809,33799,33819,33369,33193,33166,33316,33412,33470,33567,33145,33215,33300,33292,33313,33528,33239,34158,33926,33381,33287,35463,74398,74367,74033,74169,74024,73458,74266,74001,73760,74353,74072,74204,74731,73708,74516,73988,74274,73968,74602,74218,74231,73774,74295,74671,74967,74431,74102,74139,74138,74328,73696,74151,74554,74293,73606,73947,28911,28639,28734,28994,28842,28690,28914,28471,28518,28608,28462,28779,28408,28416,28643,28413,28222,28480,28036,28294,28200,28510,28351,28369,28206,28016,28524,28457,28412,28148,28078,28276,28709,30478,30633,30600,29514,32274,32580,31888,32072,32101,31672,31617,31972,31830,31991,31701,31558,31739,31534,31465,31487,31591,31475,31195,31514,31071,31276,30970,31622,31317,31390,31802,31464,31648,31618,31393,31950,31542,27255,27327,27363,27035,27410,27362,26991,26851,26840,26794,27040,27186,27218,27049,27072,26848,26692,26754,27083,27088,26876,26711,26562,27069,26821,27132,26958,26955,26968,26594,26949,26776,26616,27001,26598,26811,27227,26754,26921,26993,26847,26887,26697,26822,26844,26861,26625,26637,26740,26862,26660,26649,26387,26440,26551,26798,26433,26409,26524,26286,26649,26566,26331,26276,26305,26271,26286,26318,25916,26189,26517,26303,26327,26077,26339,26345,26211,26408,26179,26343,26565,30304,30135,30136,30111,30019,29976,30216,30271,30077,29870,30218,30039,30031,30134,29971,29980,29895,29709,29753,30118,29816,30014,29784,29883,30253,30672,30332,29831,29940,29925,30533,30604,30729,30612,30665,30761,30500,30100,30738,30236,27183,27381,26866,26472,26618,26429,26327,26724,26844,26966,27211,26237,27086,26976,26926,26690,26373,26298,26627,26659,26948,26770,26843,26850,27163,26828,26661,26657,26483,26552,26536,27222,26596,27335,27089,26764,26290,26625,26700,26753,26551,26491,26667,26720,26800,26635,26694,26708,26668,26636,26616,27102,26630,26624,26666,26720,26835,26875,26806,26722,26593,26753,26714,26623,26633,26786,26790,26742,26657,26521,26542,27084,26777,26540,26652,26541,26478,26480,26583,26320,26463,26418,26677,30310,30373,30493,30584,30232,30184,29956,30091,30086,30086,30038,30184,29835,29767,30002,29959,30231,30160,29693,29786,29742,29661,29401,29579,29397,29597,29656,29440,29541,29142,29273,29363,29370,29627,29125,29404,29160,29486,29308,29323,27464,27441,27094,27241,27606,27241,27234,26983,26989,27423,27244,27150,26879,26937,27305,27259,27079,26856,27307,27085,26955,27089,26851,26844,27077,26991,27118,27025,27001,26748,26771,26914,26576,26698,26766,26821,26818,26765,26843,27372,27123,27690,31823,31753,31976,31331,31387,31393,31683,31779,31596,31502,31371,31403,31349,31405,31566,31454,31428,31679,31231,31445,31335,31408,31780,31288,31953,31739,31634,31162,31123,31726,31874,31968,31389,31683,31558,31383,31678,32194,32138,31970,32055,32055,31829,31965,31887,31781,31598,31702,31731,31668,31817,31604,31480,31608,31689,31561,31927,31590,31669,31683,31868,31349,31436,31715,31439,31612,31251,31415,31514,31374,31743,31459,31466,31321,31194,31447,31306,30185,30095,30134,30086,29987,29949,29931,29951,29924,29953,30166,30080,30157,30162,30007,30053,30135,30132,30055,30087,30123,30062,30257,30209,30070,30000,30292,30371,30285,30150,30144,30102,30068,30220,30190,30049,30215,33586,33608,33372,33545,33526,33324,33393,33226,33687,33711,33585,33535,33393,33357,33289,33826,33688,33499,33358,33388,33254,33645,33517,33642,33516,33286,33238,33166,33032,33133,32976,32840,32751,32926,32965,33232,33270,33211,33165,33042,33166,33660,33176,33157,27189,27190,27454,27612,27451,27366,27758,27477,27528,27327,27369,27301,27004,26943,26905,26724,26947,27146,27056,26765,26456,26754,27060,27138,27062,26933,26709,26599,26394,29344,29369,29285,29145,29255,29252,29300,29198,29005,29065,28869,28841,28890,29000,29018,29121,29014,28905,29190,29251,29127,29213,29115,28997,29110,29152,29220,29202,29234,29368,29266,29743,29900,29930,30086,30139,30092,30061,30076,30060,30043,29949,29980,29960,29951,29951,29898,29900,29781,29780,29775,29682,29624,29572,29611,29638,29666,29606,29464,29506,29617,29494,29533,29611,29632,29616,29705,29618,29633,29653,29666,29666,29655,29649,29692,29680,30008,29975,29595,27732,27632,27536,27486,27494,27501,27405,27544,27545,27344,27386,27497,27551,27542,27628,27428,27345,27303,27312,27143,27368,27219,27298,27467,27306,27440,27643,27526,27477,27495,27784,27580,27570,27648,27570,27605,27571,27333,27448,27623,27412,27352,28374,27788,26109,26178,26295,26392,26528,26330,26460,26565,26631,26274,26338,26389,26428,26052,26363,26574,26530,26752,26671,26322,26397,26305,26437,26257,26178,26237,26249,26274,26240,26220,26080,26297,26336,26051,25986,26031,26011,26375,26113,26661,30072,30123,30030,30355,30283,30241,30216,30221,30552,30597,30574,30555,30559,30445,30479,30557,30558,30573,30407,30590,30567,30520,30498,30869,30872,30759,30570,30349,30579,30420,30835,30783,30689,30489,30463,30367,30361,30265,30255,30388,30365,30305,30344,28825,28870,28894,28907,28955,29020,29021,28976,28992,28993,28982,28976,28886,28863,28860,28866,28837,28876,28871,28789,28816,28830,28780,28753,28785,28909,28937,28874,28714,28688,28688,28719,28671,28666,28663,28631,28568,28715,28824,28743,28697,28919,28962,28959,29071,29082,29075,29082,29059,29091,29097,29055,29072,29231,29237,29146,29126,29111,29032,29089,29179,29240,29217,29052,29070,29103,29130,29146,29140,29116,29125,29097,29075,29079,29080,29078,29101,29140,29133,28935,26920,27052,26015,26034,25857,26008,25917,25923,25902,25900,25938,25988,25894,25987,25917,25877,25803,25910,25914,26034,25978,25785,25827,25831,25819,25874,25901,25813,25842,25825,25911,27061,27092,26921,26923,29636,30408,29813,29820,30183,29999,29908,29633,28873,29230,28908,29119,29297,28870,28429,28760,29234,29646,29369,29281,29006,29335,29164,29144,28952,29049,28709,29660,29289,28073,26533,26648,26376,26492,26335,26354,26383,26349,26256,26290,26289,26182,26120,26045,26105,26052,26041,26490,26433,26119,26234,26138,26070,26159,26238,26226,26031,26099,25848,25931,25907,25931,25767,25748,25734,25893,26031,26216,26028,26632,26366,26130,27603,27610,27633,27776,27712,27829,27806,27816,27869,27906,27889,27957,27990,28081,28180,28147,28204,27946,28011,27393,27971,26757,26538,26461,26706,26492,26457,26248,26272,26337,26211,26097,27311,27284,27152,27239,27197,27207,27234,27049,27043,26973,26907,26850,27021,27075,27217,27255,27698,27146,27081,27023,26917,26752,26713,26950,27332,29643,29957,29712,29715,29904,29741,29937,29863,29540,29736,29847,29633,29818,29598,29236,29320,29334,29484,29474,29500,29590,29334,29723,29744,28921,28780,28696,28369,28735,28715,28715,28619,28444,28502,28841
35508,34615,34760,34409,34376,34511,34870,34557,33099,33094,33951,34545,34108,34768,35051,34674,35092,34979,35196,34818,34871,34832,34524,34941,34935,34692,34633,34892,34996,34492,34808,34548,34560,34628,34619,34374,34815,34999,34661,34249,34759,34621,34734,34842,34515,34429,34660,34622,34285,34774,35955,35812,35691,35692,35252,34937,32599,34863,32575,33661,33700,33774,31707,31518,31487,31584,32062,31732,32026,31622,31337,31502,32003,31600,31864,31926,32073,32188,32026,32146,31987,31757,31829,31699,31815,31684,31659,31897,31587,31818,31997,31675,31495,31591,31854,31741,31601,31592,32021,31916,31689,31485,32017,31738,31732,31520,30902,30844,30746,30898,30488,30535,30755,30770,30938,30621,30445,31074,30901,30411,30769,30567,30356,30679,30779,30608,33270,33189,32988,33042,33039,33250,33255,33224,33545,34102,34040,33158,30566,33427,30804,30521,30336,30727,29822,30169,29843,29822,29895,29649,29810,29728,29810,29501,30467,30238,31640,31043,30573,30193,30725,30712,30375,30102,30145,29785,30257,30003,30082,30060,29978,29667,33214,32962,32476,32406,32360,32223,32239,32196,32539,32362,32224,32337,32248,32247,32138,32416,32416,32246,32565,32350,32463,32267,32080,32333,32149,31959,31943,32089,31998,32347,32386,32183,32627,32598,32207,32416,32046,31955,31694,31770,32010,31976,32510,32494,31534,31481,32310,34755,35016,35070,34827,34785,34868,34905,34886,34553,34533,34807,34626,34620,34881,35030,34866,34944,34893,34861,34915,34349,34773,34734,34733,34645,34897,34938,34903,34804,34820,34639,34601,34809,34603,34016,34393,34705,34842,34647,34950,34789,34776,34327,34797,35400,35392,35401,35196,35389,35289,35365,35209,35022,34781,34771,35125,34968,33598,34095,33688,34020,33933,33820,33896,33847,33901,33642,33824,33595,33788,33807,33833,33389,33204,33190,33344,33414,33472,33585,33143,33159,33305,33306,33325,33548,33166,34172,33937,33406,33304,35468,74436,74164,74038,74181,73797,73505,74295,74036,73772,74401,74063,74242,74731,73715,74538,74021,74288,73983,74619,74232,74266,73804,74336,74695,74991,74153,74101,74159,74159,74363,73708,74196,74572,74320,73634,73975,28925,28664,28754,29009,28865,28673,28932,28451,28488,28630,28482,28797,28430,28387,28669,28433,28205,28497,28042,28313,28167,28527,28369,28306,28230,28031,28537,28474,28366,28142,28052,28261,28725,30429,30638,30613,29447,32285,32574,31846,32093,32126,31673,31638,31986,31831,32001,31720,31538,31754,31562,31479,31502,31592,31445,31177,31509,31088,31296,30971,31634,31333,31404,31816,31478,31575,31640,31366,31945,31552,27270,27345,27374,26965,27343,27378,27012,26835,26849,26775,26957,27136,27232,27066,27086,26786,26700,26769,27106,27102,26892,26715,26573,27079,26764,27144,26972,26965,26896,26544,26921,26742,26626,27019,26616,26835,27235,26764,26941,27007,26859,26774,26711,26832,26858,26887,26631,26618,26758,26866,26682,26653,26396,26450,26570,26804,26388,26419,26539,26306,26667,26468,26350,26300,26326,26283,26297,26331,25920,26210,26510,26314,26336,26083,26333,26354,26225,26419,26182,26342,26576,30285,30141,30144,30128,30049,29991,30134,30279,30088,29895,30228,30046,29919,30153,29984,29989,29912,29731,29717,30146,29846,30032,29815,29845,30269,30686,30354,29850,29959,29939,30556,30628,30754,30637,30682,30785,30509,30112,30625,30245,27141,27400,26900,26511,26643,26375,26339,26759,26871,26983,27230,26253,27108,26988,26879,26722,26383,26253,26655,26656,26965,26788,26864,26866,27192,26765,26682,26665,26414,26584,26550,27192,26560,27346,27100,26781,26282,26651,26677,26778,26579,26462,26690,26717,26816,26635,26707,26718,26673,26649,26614,27084,26635,26622,26681,26673,26818,26887,26817,26723,26599,26751,26716,26634,26614,26784,26795,26694,26661,26518,26541,27076,26776,26540,26603,26501,26462,26477,26588,26329,26474,26408,26681,30282,30375,30501,30581,30231,30191,29963,30101,30074,30096,30037,30186,29845,29741,30008,29960,30207,30169,29682,29794,29737,29672,29387,29589,29406,29607,29658,29446,29550,29118,29281,29316,29385,29639,29130,29398,29166,29478,29317,29323,27481,27451,27104,27267,27541,27211,27244,27006,26978,27406,27259,27164,26903,26952,27306,27277,27100,26862,27325,27106,26900,27003,26766,26815,27104,27013,27136,26934,26954,26776,26777,26904,26547,26725,26760,26829,26851,26776,26853,27377,27134,27697,31823,31768,31896,31340,31388,31314,31705,31784,31600,31515,31382,31404,31357,31400,31586,31435,31441,31692,31244,31465,31333,31397,31791,31231,31973,31728,31648,31042,31129,31740,31889,31969,31326,31696,31561,31385,31690,32199,32070,31948,32060,32065,31843,31990,31906,31757,31611,31719,31750,31669,31829,31599,31494,31618,31678,31553,31938,31596,31681,31695,31770,31353,31428,31726,31458,31629,31202,31423,31528,31384,31689,31450,31486,31338,31176,31454,31320,30186,30097,30140,30086,29984,29948,29937,29941,29930,29957,30170,30083,30155,30167,30014,30048,30144,30134,30061,30085,30115,30056,30262,30219,30077,29998,30292,30364,30280,30156,30153,30106,30065,30221,30191,30056,30195,33594,33613,33376,33545,33529,33320,33396,33234,33679,33717,33598,33528,33401,33357,33297,33834,33692,33497,33352,33392,33247,33624,33527,33654,33524,33252,33212,33122,33034,33149,32985,32843,32759,32894,32970,33230,33245,33216,33171,33047,33173,33624,33166,33152,27203,27198,27464,27632,27453,27357,27770,27508,27548,27337,27293,27309,27024,26935,26913,26734,26914,27156,27069,26779,26448,26776,27051,27036,26999,26945,26729,26606,26394,29309,29375,29288,29148,29260,29268,29296,29193,29011,29030,28880,28841,28898,28995,29020,29131,29022,28918,29197,29259,29126,29216,29122,29003,29117,29093,29231,29199,29241,29373,29261,29742,29902,29930,30087,30142,30092,30062,30081,30064,30045,29950,29967,29961,29957,29952,29903,29896,29785,29779,29779,29682,29624,29575,29616,29638,29669,29609,29463,29509,29614,29496,29538,29616,29630,29620,29709,29614,29637,29646,29669,29667,29659,29638,29696,29683,30011,29978,29592,27739,27637,27547,27463,27496,27509,27408,27557,27503,27351,27387,27511,27556,27462,27555,27437,27348,27301,27308,27161,27310,27222,27309,27475,27319,27447,27651,27528,27479,27500,27788,27588,27577,27647,27576,27572,27575,27340,27454,27618,27424,27360,28364,27791,26085,26192,26266,26404,26540,26346,26464,26585,26652,26284,26350,26364,26349,26040,26348,26586,26550,26652,26680,26344,26415,26329,26460,26269,26156,26255,26251,26297,26251,26232,26067,26307,26351,26044,25998,26022,26025,26389,26119,26672,30072,30135,30032,30357,30283,30243,30190,30227,30558,30597,30578,30554,30554,30451,30483,30560,30550,30568,30403,30583,30561,30523,30506,30861,30875,30763,30561,30356,30582,30416,30835,30786,30693,30494,30468,30377,30369,30274,30254,30392,30368,30309,30336,28829,28876,28900,28905,28949,29022,29026,28974,28993,28995,28987,28978,28882,28864,28860,28867,28844,28881,28872,28777,28816,28831,28782,28752,28788,28907,28925,28873,28707,28691,28679,28718,28666,28667,28667,28620,28566,28719,28826,28738,28697,28919,28964,28962,29070,29088,29078,29079,29057,29094,29100,29057,29064,29231,29236,29144,29130,29110,29033,29089,29183,29239,29215,29053,29070,29104,29123,29148,29139,29116,29129,29098,29081,29073,29079,29073,29105,29135,29131,28933,26926,27049,26020,26035,25861,26013,25919,25913,25900,25904,25939,25992,25879,25977,25926,25881,25801,25912,25919,26032,25978,25790,25829,25834,25818,25862,25900,25817,25837,25823,25911,27062,27093,26913,26921,29656,30417,29823,29823,30199,30020,29928,29644,28899,29245,28907,29135,29320,28899,28447,28787,29257,29661,29310,29199,29012,29348,29159,29173,28928,29055,28717,29674,29181,28085,26498,26644,26386,26501,26349,26362,26374,26305,26269,26296,26299,26165,26131,26037,26113,26066,26033,26477,26436,26121,26230,26137,26072,26099,26256,26177,26036,26107,25841,25933,25894,25942,25778,25751,25729,25900,26036,26227,26037,26636,26371,26129,27607,27612,27633,27776,27719,27837,27804,27823,27862,27908,27889,27959,27992,28082,28183,28149,28204,27951,28012,27387,27976,26757,26542,26462,26704,26494,26461,26250,26258,26343,26214,26107,27321,27285,27152,27244,27200,27211,27233,27045,27045,26976,26903,26824,27032,27071,27224,27256,27701,27146,27087,27025,26907,26754,26714,26947,27331,29653,29959,29725,29716,29913,29749,29941,29863,29544,29673,29855,29631,29824,29603,29240,29328,29340,29424,29470,29458,29595,29345,29665,29757,28922,28783,28710,28374,28739,28718,28680,28627,28454,28526,28845
35528,34604,34740,34441,34392,34455,34783,34551,33093,32914,33966,34555,34111,34779,34878,34668,35098,34980,35219,34827,34915,34823,34522,34943,34957,34648,34553,34918,35004,34496,34809,34560,34495,34508,34616,34391,34858,35021,34683,34216,34767,34626,34749,34865,34528,34443,34675,34645,34289,34784,35966,35840,35692,35720,35302,34958,32618,34871,32585,33672,33729,33804,31606,31437,31530,31602,32069,31727,32050,31639,31380,31511,32027,31562,31888,31942,32007,32186,32038,32141,32009,31759,31792,31740,31818,31702,31619,31916,31538,31847,31991,31588,31517,31596,31883,31775,31500,31592,32027,31914,31664,31508,32037,31755,31761,31542,30928,30822,30782,30919,30493,30523,30652,30722,30839,30632,30457,31083,30889,30402,30797,30485,30237,30626,30782,30626,33290,33236,32959,33074,33059,33113,33275,33162,33552,34112,34055,33182,30528,33436,30810,30552,30353,30750,29856,30123,29856,29840,29916,29654,29741,29737,29821,29533,30469,30241,31621,31053,30586,30216,30731,30723,30392,30111,30155,29805,30278,29970,30076,30019,29983,29582,33211,32974,32443,32421,32325,32253,32247,32181,32542,32386,32240,32221,32263,32281,32172,32437,32437,32272,32565,32376,32479,32253,32110,32346,32151,31981,31977,32101,32021,32367,32371,32218,32637,32613,32246,32418,32074,32002,31722,31727,32033,32009,32512,32490,31524,31491,32333,34777,35039,35082,34827,34774,34886,34923,34905,34565,34563,34817,34570,34559,34878,35039,34885,34959,34918,34851,34781,34377,34773,34753,34770,34675,34904,34951,34913,34823,34846,34673,34612,34826,34601,34041,34391,34714,34852,34656,34952,34799,34773,34357,34807,35386,35409,35416,35213,35393,35293,35302,35192,35041,34798,34782,35129,34991,33626,34093,33693,34035,33940,33806,33920,33869,33923,33652,33852,33609,33794,33817,33844,33395,33229,33218,33373,33409,33439,33614,33152,33121,33306,33326,33335,33568,33115,34180,33945,33428,33321,35486,74471,74049,74031,74202,73674,73523,74318,74071,73756,74449,74085,74303,74574,73735,74560,74058,74320,74002,74646,74260,74312,73834,74361,74601,75022,73887,74103,74162,74182,74383,73750,74231,74594,74342,73666,74007,28943,28683,28772,29034,28885,28663,28908,28446,28464,28644,28495,28778,28448,28364,28682,28456,28185,28516,28063,28325,28146,28540,28390,28241,28251,28038,28549,28482,28334,28147,28033,28204,28729,30357,30638,30618,29400,32295,32532,31818,32103,32141,31697,31657,31999,31848,32010,31731,31533,31764,31594,31493,31508,31598,31424,31160,31480,31108,31312,30987,31650,31359,31412,31826,31498,31516,31672,31347,31949,31559,27281,27361,27385,26906,27295,27378,27034,26834,26855,26761,26886,27070,27222,27079,27113,26744,26712,26786,27118,27115,26906,26719,26581,27081,26734,27140,26980,26980,26839,26504,26877,26716,26652,27035,26628,26854,27235,26779,26958,27022,26873,26682,26721,26847,26872,26909,26628,26616,26768,26879,26697,26665,26402,26458,26582,26813,26361,26431,26556,26330,26679,26380,26366,26317,26353,26287,26291,26331,25914,26222,26443,26329,26351,26090,26323,26366,26247,26443,26202,26307,26581,30240,30145,30157,30155,30074,30004,30036,30281,30088,29915,30235,30046,29839,30165,30007,29992,29936,29753,29715,30157,29880,30051,29837,29840,30281,30680,30376,29876,29985,29939,30570,30648,30785,30655,30705,30813,30516,30123,30505,30256,27105,27421,26929,26546,26673,26324,26367,26786,26893,27006,27251,26276,27132,27004,26846,26753,26392,26213,26689,26671,26993,26811,26879,26886,27215,26708,26706,26685,26351,26612,26562,27113,26527,27358,27106,26804,26285,26669,26673,26798,26597,26448,26710,26712,26824,26636,26717,26724,26688,26657,26605,27047,26638,26618,26692,26619,26808,26893,26817,26736,26606,26744,26715,26649,26609,26785,26801,26663,26669,26506,26532,27074,26772,26544,26572,26477,26455,26487,26598,26337,26481,26403,26691,30267,30379,30514,30587,30223,30190,29974,30112,30068,30099,30035,30169,29850,29724,30022,29964,30183,30175,29665,29801,29736,29693,29375,29596,29413,29627,29655,29455,29564,29110,29289,29267,29387,29649,29134,29362,29177,29473,29324,29339,27491,27473,27116,27294,27454,27194,27260,27017,26972,27348,27269,27184,26919,26974,27322,27287,27119,26881,27329,27130,26870,26922,26702,26804,27119,27032,27148,26859,26917,26803,26792,26857,26526,26751,26767,26843,26871,26789,26870,27399,27147,27711,31821,31772,31868,31351,31390,31290,31720,31779,31614,31522,31395,31387,31361,31396,31583,31436,31463,31715,31255,31488,31274,31409,31817,31223,31985,31744,31679,30959,31135,31751,31904,31987,31302,31684,31576,31389,31695,32206,32007,31947,32066,32071,31854,32008,31896,31738,31629,31718,31765,31662,31836,31607,31511,31623,31666,31549,31945,31600,31696,31701,31687,31372,31430,31737,31474,31647,31166,31428,31555,31390,31578,31445,31510,31357,31174,31471,31340,30192,30099,30140,30090,29981,29938,29946,29935,29932,29965,30172,30082,30155,30172,30028,30030,30143,30132,30066,30092,30121,30061,30265,30215,30085,29992,30296,30373,30281,30161,30148,30113,30062,30229,30199,30063,30180,33601,33616,33388,33544,33519,33311,33381,33238,33671,33717,33596,33495,33408,33360,33300,33838,33693,33493,33358,33395,33246,33607,33532,33664,33523,33201,33173,33086,33049,33152,32996,32847,32769,32880,32974,33225,33235,33220,33177,33053,33170,33608,33172,33141,27233,27209,27485,27635,27459,27346,27787,27537,27581,27353,27253,27324,27052,26931,26924,26725,26904,27168,27079,26797,26445,26793,26985,26951,26904,26950,26763,26617,26388,29304,29385,29294,29154,29270,29269,29304,29183,29020,29018,28893,28849,28906,28999,29031,29135,29029,28936,29194,29265,29142,29202,29127,29018,29127,29034,29246,29209,29243,29378,29265,29746,29905,29931,30089,30140,30092,30062,30081,30066,30049,29951,29963,29962,29956,29951,29902,29903,29787,29787,29782,29677,29624,29575,29620,29638,29672,29610,29460,29510,29615,29498,29539,29615,29631,29622,29706,29601,29636,29646,29668,29666,29661,29627,29683,29686,30014,29978,29580,27744,27644,27553,27461,27497,27513,27408,27568,27441,27360,27396,27526,27523,27414,27509,27454,27350,27299,27305,27168,27235,27224,27322,27483,27335,27453,27656,27533,27483,27508,27793,27593,27578,27648,27580,27544,27577,27341,27460,27619,27436,27375,28325,27792,26070,26210,26253,26413,26556,26353,26481,26604,26674,26299,26369,26340,26311,26037,26325,26605,26566,26506,26647,26363,26430,26351,26478,26283,26141,26272,26260,26310,26269,26248,26057,26323,26362,26040,26011,26009,26039,26404,26130,26682,30073,30137,30035,30355,30289,30247,30174,30227,30562,30609,30583,30543,30554,30460,30488,30556,30547,30571,30397,30577,30565,30533,30508,30847,30879,30764,30559,30363,30585,30408,30824,30796,30699,30498,30469,30378,30369,30285,30261,30400,30376,30310,30336,28830,28874,28901,28913,28955,29023,29027,28980,28990,28993,28985,28982,28886,28867,28867,28871,28849,28880,28878,28773,28819,28827,28780,28752,28793,28914,28911,28873,28712,28692,28678,28724,28663,28663,28674,28610,28576,28723,28825,28733,28701,28918,28969,28961,29074,29081,29080,29077,29058,29092,29103,29057,29058,29234,29239,29143,29130,29111,29037,29089,29179,29243,29214,29053,29068,29103,29115,29147,29139,29119,29131,29101,29080,29067,29085,29076,29110,29127,29137,28929,26916,27053,26022,26041,25864,26011,25917,25905,25902,25904,25938,25992,25871,25959,25931,25877,25804,25911,25918,26030,25977,25794,25836,25834,25820,25860,25906,25818,25842,25821,25914,27068,27094,26908,26919,29684,30426,29840,29828,30203,30034,29947,29663,28923,29263,28907,29156,29338,28919,28472,28816,29280,29674,29272,29133,29020,29357,29155,29203,28930,29063,28729,29697,29088,28105,26475,26625,26399,26511,26361,26372,26325,26281,26276,26311,26311,26162,26142,26031,26121,26070,26031,26476,26437,26122,26229,26139,26078,26047,26263,26102,26044,26102,25839,25938,25887,25945,25787,25749,25732,25907,26049,26231,26046,26640,26374,26129,27608,27616,27634,27774,27722,27836,27808,27820,27862,27911,27896,27963,27991,28088,28185,28145,28206,27954,28010,27385,27976,26757,26543,26469,26704,26501,26460,26256,26249,26346,26219,26113,27322,27283,27156,27246,27203,27207,27229,27047,27049,26974,26903,26803,27036,27074,27224,27265,27696,27155,27083,27032,26904,26755,26714,26954,27335,29657,29966,29725,29714,29919,29758,29949,29869,29548,29613,29864,29627,29825,29611,29243,29337,29342,29394,29465,29443,29605,29361,29593,29763,28921,28785,28714,28383,28742,28726,28648,28634,28470,28542,28841
35547,34623,34670,34464,34394,34424,34748,34550,33083,32780,33978,34579,34115,34790,34803,34680,35084,34993,35240,34844,34955,34813,34543,34964,34977,34642,34527,34938,34963,34497,34752,34568,34461,34456,34617,34417,34896,35006,34713,34223,34797,34642,34771,34898,34544,34454,34696,34665,34301,34799,35974,35857,35704,35734,35351,34982,32632,34887,32601,33684,33766,33830,31514,31391,31560,31614,32037,31729,32071,31659,31410,31526,32048,31549,31917,31968,31931,32180,32053,32108,32033,31744,31775,31775,31816,31706,31601,31935,31513,31867,31929,31525,31551,31607,31907,31784,31422,31594,32023,31927,31652,31548,32067,31778,31789,31568,30937,30748,30807,30951,30495,30517,30568,30630,30730,30645,30469,31107,30830,30407,30813,30372,30143,30597,30807,30633,33318,33269,32960,33092,33086,33032,33303,33136,33561,34131,34056,33197,30515,33446,30817,30568,30360,30770,29887,30054,29892,29849,29931,29659,29643,29758,29825,29572,30464,30250,31612,31058,30601,30225,30746,30742,30398,30129,30167,29818,30285,29971,30065,30006,29993,29495,33204,32977,32434,32438,32308,32274,32257,32146,32543,32416,32273,32138,32289,32309,32199,32444,32444,32295,32549,32396,32489,32257,32137,32354,32162,32004,31983,32113,32055,32381,32359,32246,32648,32615,32283,32419,32103,32029,31747,31684,32054,32040,32505,32488,31499,31500,32362,34801,35052,35043,34843,34761,34896,34937,34905,34594,34593,34822,34571,34545,34877,35044,34889,34972,34936,34860,34738,34415,34768,34775,34802,34715,34914,34968,34921,34830,34858,34703,34652,34843,34602,34069,34398,34727,34862,34670,34962,34814,34726,34379,34812,35378,35419,35417,35225,35394,35298,35177,35184,35052,34823,34814,35136,35007,33649,34053,33715,34065,33959,33800,33931,33875,33946,33655,33866,33625,33792,33836,33838,33394,33246,33232,33394,33407,33348,33627,33163,33104,33311,33347,33347,33596,33091,34184,33960,33447,33340,35505,74501,74014,74045,74227,73631,73531,74348,74111,73768,74496,74110,74350,74283,73784,74588,74096,74338,74008,74673,74280,74357,73850,74385,74335,75050,73740,74115,74160,74211,74285,73808,74271,74623,74359,73674,74039,28966,28713,28792,29055,28905,28680,28837,28450,28439,28663,28515,28714,28457,28353,28703,28482,28171,28538,28077,28332,28129,28505,28406,28184,28266,28056,28573,28468,28307,28164,28019,28137,28701,30316,30651,30627,29372,32321,32459,31808,32106,32163,31714,31677,32019,31866,32019,31747,31525,31790,31613,31491,31532,31601,31409,31135,31416,31122,31324,31020,31667,31381,31419,31836,31518,31460,31697,31340,31962,31577,27300,27381,27377,26855,27257,27345,27059,26844,26861,26763,26832,26989,27183,27088,27123,26709,26721,26801,27124,27123,26922,26724,26585,27065,26703,27110,26993,26989,26793,26481,26804,26694,26663,27045,26641,26872,27243,26794,26976,27032,26892,26628,26719,26862,26890,26919,26638,26624,26773,26897,26709,26672,26415,26464,26589,26826,26356,26450,26575,26329,26691,26313,26370,26327,26379,26297,26218,26342,25913,26230,26332,26337,26361,26099,26328,26371,26265,26464,26205,26215,26589,30175,30148,30174,30165,30096,30011,29947,30266,30083,29948,30243,30040,29789,30179,30015,30003,29955,29792,29731,30168,29903,30067,29865,29860,30263,30686,30407,29909,30016,29946,30581,30665,30822,30670,30720,30838,30528,30134,30394,30264,27087,27439,26956,26580,26700,26285,26386,26814,26911,27036,27270,26302,27155,27020,26814,26780,26406,26190,26713,26691,27014,26824,26894,26911,27230,26666,26728,26702,26294,26633,26564,27043,26495,27371,27119,26831,26299,26702,26661,26813,26624,26444,26730,26706,26814,26642,26735,26729,26696,26666,26595,27017,26642,26622,26713,26574,26810,26897,26826,26748,26602,26757,26724,26663,26622,26786,26812,26650,26674,26507,26530,27061,26764,26545,26566,26475,26460,26494,26612,26338,26486,26413,26701,30248,30381,30523,30597,30205,30209,29979,30119,30055,30115,30034,30127,29866,29713,30036,29969,30168,30179,29649,29808,29738,29707,29380,29607,29434,29635,29652,29469,29578,29118,29304,29217,29395,29642,29143,29313,29179,29466,29335,29346,27500,27494,27142,27318,27393,27181,27280,27022,26967,27258,27290,27199,26942,27001,27343,27309,27142,26903,27308,27142,26862,26853,26657,26807,27123,27052,27160,26810,26895,26821,26815,26782,26530,26782,26782,26856,26888,26814,26889,27409,27152,27723,31827,31792,31872,31350,31404,31264,31733,31792,31619,31537,31399,31386,31378,31384,31587,31440,31474,31740,31266,31517,31172,31426,31831,31215,31929,31766,31694,30912,31156,31767,31925,32001,31291,31667,31576,31384,31700,32216,31952,31944,32083,32090,31870,32027,31814,31734,31651,31726,31774,31658,31849,31617,31520,31636,31665,31543,31930,31605,31721,31707,31629,31384,31440,31736,31489,31668,31150,31401,31573,31405,31501,31452,31532,31371,31183,31483,31353,30195,30101,30140,30098,29982,29930,29958,29928,29934,29977,30172,30082,30157,30174,30031,30000,30153,30131,30071,30105,30119,30058,30277,30202,30090,29988,30302,30368,30288,30165,30156,30127,30056,30232,30208,30061,30171,33603,33617,33392,33551,33476,33312,33342,33252,33673,33721,33603,33463,33404,33352,33305,33835,33689,33489,33362,33396,33244,33601,33530,33664,33530,33169,33134,33064,33062,33143,33001,32836,32764,32890,32982,33218,33229,33228,33181,33062,33173,33608,33181,33143,27259,27223,27499,27626,27458,27359,27802,27554,27615,27371,27235,27336,27078,26939,26918,26727,26906,27185,27089,26809,26449,26809,26892,26893,26826,26964,26801,26634,26386,29300,29386,29294,29151,29277,29278,29312,29129,29030,29018,28902,28852,28906,29009,29036,29139,29039,28954,29196,29277,29149,29131,29136,29031,29136,29003,29244,29215,29251,29380,29264,29748,29909,29930,30088,30131,30095,30060,30071,30069,30052,29951,29960,29963,29962,29945,29902,29903,29790,29791,29781,29678,29626,29578,29625,29639,29679,29611,29461,29513,29613,29498,29540,29618,29633,29621,29706,29591,29638,29647,29668,29667,29661,29623,29668,29685,30019,29977,29572,27735,27651,27545,27462,27500,27520,27411,27581,27397,27371,27407,27536,27445,27395,27488,27471,27349,27299,27307,27164,27187,27225,27334,27491,27347,27460,27659,27537,27488,27510,27798,27597,27586,27646,27585,27530,27576,27346,27467,27619,27439,27391,28284,27798,26057,26228,26246,26426,26557,26363,26495,26626,26692,26305,26387,26321,26283,26046,26304,26619,26582,26432,26548,26382,26444,26369,26497,26303,26125,26293,26279,26327,26281,26258,26051,26336,26351,26040,26019,26012,26056,26391,26141,26691,30078,30142,30039,30360,30288,30247,30169,30232,30568,30611,30574,30539,30553,30464,30487,30557,30550,30578,30402,30569,30563,30536,30500,30830,30874,30765,30561,30372,30590,30400,30806,30797,30702,30496,30466,30373,30370,30292,30264,30400,30379,30314,30343,28831,28877,28903,28915,28952,29021,29026,28981,28996,28998,28988,28978,28883,28865,28870,28870,28850,28883,28879,28769,28815,28830,28777,28753,28797,28918,28897,28871,28708,28697,28683,28723,28659,28669,28675,28603,28580,28723,28827,28732,28703,28921,28965,28962,29080,29080,29076,29075,29057,29095,29104,29055,29048,29229,29236,29139,29124,29118,29038,29089,29186,29240,29214,29056,29072,29108,29118,29146,29138,29121,29132,29101,29082,29065,29084,29076,29111,29113,29137,28932,26924,27057,26027,26043,25869,26004,25917,25901,25906,25903,25940,25999,25868,25941,25930,25880,25807,25913,25920,26019,25979,25796,25835,25834,25821,25858,25908,25821,25840,25822,25914,27066,27092,26907,26924,29710,30435,29855,29841,30185,30049,29968,29683,28949,29270,28911,29185,29356,28937,28506,28837,29297,29696,29256,29094,29032,29369,29159,29233,28941,29068,28746,29718,29022,28124,26464,26571,26409,26516,26375,26386,26264,26268,26292,26325,26322,26153,26150,26031,26126,26073,26030,26483,26438,26124,26232,26146,26086,26013,26270,26048,26045,26053,25846,25936,25882,25963,25783,25752,25740,25914,26054,26239,26048,26642,26376,26135,27613,27616,27634,27774,27729,27842,27801,27821,27860,27914,27897,27967,27995,28087,28183,28151,28208,27953,28013,27384,27981,26751,26543,26476,26704,26498,26461,26256,26252,26354,26227,26125,27323,27288,27160,27247,27204,27197,27214,27051,27055,26974,26907,26792,27041,27073,27230,27270,27685,27155,27093,27042,26902,26758,26717,26956,27334,29663,29972,29730,29709,29926,29762,29959,29876,29549,29594,29869,29627,29803,29626,29253,29339,29352,29388,29467,29445,29610,29369,29554,29774,28922,28786,28712,28391,28744,28737,28628,28638,28477,28557,28828
35567,34632,34587,34479,34394,34402,34750,34550,33084,32721,33988,34594,34114,34800,34765,34701,34980,35008,35276,34865,34995,34804,34569,34988,34991,34638,34505,34959,34807,34497,34604,34584,34467,34426,34628,34462,34912,34897,34734,34240,34810,34667,34793,34918,34566,34464,34706,34682,34315,34810,35979,35869,35723,35747,35405,35005,32647,34905,32620,33695,33797,33848,31447,31361,31592,31632,31967,31736,32079,31677,31443,31546,32041,31541,31937,31987,31843,32178,32066,32022,32060,31746,31771,31821,31828,31681,31605,31953,31510,31889,31834,31488,31593,31627,31920,31795,31371,31595,32020,31932,31652,31586,32085,31799,31809,31608,30925,30632,30837,30966,30507,30515,30511,30530,30639,30671,30472,31127,30729,30405,30830,30283,30084,30594,30824,30666,33343,33300,32967,33107,33109,33002,33324,33138,33568,34134,34062,33217,30509,33458,30819,30582,30378,30779,29911,29975,29928,29865,29948,29670,29547,29774,29827,29607,30473,30254,31612,31058,30617,30245,30754,30757,30399,30143,30176,29827,30309,29975,30073,30000,29990,29430,33202,32982,32440,32459,32320,32280,32276,32117,32546,32432,32295,32096,32314,32335,32212,32451,32451,32315,32473,32414,32500,32279,32163,32370,32178,32035,31967,32120,32095,32403,32359,32282,32652,32623,32315,32392,32133,32070,31732,31663,32072,32070,32455,32476,31433,31509,32401,34825,35065,34878,34854,34759,34906,34946,34922,34631,34621,34816,34591,34557,34881,35054,34869,34980,34951,34865,34745,34456,34766,34787,34835,34758,34932,34977,34935,34843,34875,34730,34685,34845,34617,34081,34410,34747,34880,34694,34978,34821,34568,34408,34824,35390,35426,35419,35235,35403,35319,35111,35187,35073,34847,34841,35137,35024,33664,33966,33737,34074,33982,33792,33942,33874,33961,33661,33863,33646,33798,33847,33758,33384,33271,33256,33396,33404,33268,33634,33179,33104,33310,33370,33360,33601,33086,34200,33968,33465,33359,35531,74530,74015,74057,74259,73643,73529,74379,74161,73798,74534,74115,74391,74064,73827,74609,74124,74372,74032,74701,74309,74390,73852,74403,74125,75029,73694,74138,74165,74245,74010,73845,74310,74649,74376,73664,74067,28984,28738,28813,29053,28927,28687,28760,28466,28422,28686,28534,28637,28478,28363,28713,28502,28179,28542,28098,28348,28133,28431,28421,28137,28287,28071,28592,28418,28282,28172,28016,28080,28648,30297,30651,30635,29349,32330,32412,31805,32111,32179,31722,31697,32033,31885,32026,31771,31523,31806,31628,31509,31541,31608,31402,31127,31331,31145,31322,31055,31682,31397,31437,31849,31536,31425,31713,31336,31982,31588,27318,27405,27350,26807,27226,27292,27077,26858,26865,26773,26780,26923,27118,27105,27138,26677,26738,26826,27131,27139,26942,26726,26605,27021,26679,27055,26996,27001,26758,26466,26724,26679,26672,27059,26641,26890,27250,26813,26991,27044,26907,26583,26723,26876,26904,26932,26658,26637,26788,26905,26725,26675,26429,26476,26596,26841,26358,26464,26593,26328,26670,26266,26340,26342,26400,26303,26142,26350,25923,26239,26256,26357,26372,26104,26329,26322,26278,26482,26187,26138,26609,30112,30151,30200,30189,30111,30012,29889,30188,30077,29974,30195,30038,29768,30197,30044,30019,29975,29822,29756,30180,29911,30082,29892,29880,30199,30690,30440,29941,30040,29963,30588,30686,30850,30685,30752,30862,30541,30153,30318,30279,27060,27462,26982,26622,26726,26261,26413,26849,26932,27059,27301,26328,27181,27045,26793,26804,26416,26185,26737,26710,27031,26841,26913,26929,27233,26625,26745,26718,26242,26656,26575,27001,26469,27383,27121,26857,26315,26725,26658,26840,26653,26450,26759,26703,26774,26654,26748,26744,26701,26685,26589,26996,26651,26628,26718,26553,26810,26906,26832,26760,26596,26762,26723,26668,26629,26786,26822,26646,26683,26515,26528,27060,26752,26539,26570,26472,26460,26507,26629,26340,26493,26426,26716,30238,30386,30528,30601,30195,30213,29982,30130,30050,30121,30042,30089,29878,29698,30039,29973,30154,30189,29647,29823,29740,29715,29391,29624,29456,29641,29660,29474,29587,29119,29314,29171,29402,29610,29150,29242,29181,29460,29349,29350,27485,27503,27160,27335,27342,27174,27307,27019,26978,27187,27310,27218,26965,27015,27369,27329,27161,26934,27232,27152,26856,26794,26629,26817,27104,27063,27168,26773,26894,26820,26833,26702,26536,26796,26798,26882,26902,26832,26903,27425,27147,27739,31841,31804,31876,31338,31422,31265,31740,31800,31637,31556,31418,31385,31391,31390,31578,31452,31489,31761,31274,31539,31127,31444,31850,31220,31770,31786,31715,30896,31181,31784,31951,32010,31284,31651,31582,31379,31668,32228,31919,31942,32093,32078,31881,32041,31717,31744,31667,31743,31790,31657,31856,31632,31525,31653,31664,31538,31861,31611,31734,31713,31601,31402,31451,31668,31511,31693,31136,31325,31581,31430,31455,31458,31555,31385,31196,31458,31365,30198,30109,30132,30099,29980,29927,29965,29937,29941,29985,30172,30078,30166,30180,30038,29975,30165,30135,30070,30110,30124,30058,30288,30174,30098,29987,30302,30366,30293,30168,30154,30131,30053,30235,30212,30051,30165,33601,33630,33400,33563,33430,33300,33300,33255,33679,33716,33608,33443,33418,33358,33315,33844,33694,33492,33369,33399,33238,33605,33540,33660,33530,33150,33116,33053,33069,33100,33008,32834,32755,32898,32977,33218,33241,33218,33186,33073,33182,33617,33185,33145,27275,27237,27509,27622,27465,27365,27820,27560,27639,27397,27236,27359,27084,26947,26912,26729,26914,27201,27100,26830,26478,26826,26808,26873,26772,26980,26820,26664,26383,29309,29387,29304,29155,29284,29277,29315,29057,29036,29019,28907,28855,28908,29014,29046,29152,29052,28962,29202,29285,29153,29053,29142,29038,29140,28999,29248,29235,29261,29383,29263,29748,29909,29930,30077,30116,30096,30061,30053,30074,30056,29949,29961,29962,29962,29927,29902,29904,29790,29795,29783,29681,29630,29586,29627,29639,29679,29610,29460,29517,29613,29503,29542,29620,29639,29625,29707,29581,29640,29649,29668,29669,29662,29622,29654,29686,30021,29980,29569,27702,27659,27515,27471,27500,27525,27414,27595,27374,27384,27414,27548,27381,27394,27483,27485,27349,27305,27308,27153,27160,27234,27346,27494,27350,27464,27666,27540,27494,27519,27803,27599,27589,27648,27590,27523,27575,27340,27475,27621,27441,27415,28258,27802,26047,26247,26241,26442,26527,26372,26509,26647,26713,26314,26402,26296,26257,26061,26284,26640,26601,26400,26406,26402,26462,26393,26517,26318,26123,26315,26293,26341,26297,26271,26046,26350,26262,26051,26028,26019,26073,26299,26153,26704,30080,30139,30035,30359,30292,30250,30169,30238,30574,30616,30566,30540,30551,30471,30492,30556,30555,30579,30404,30570,30564,30534,30495,30818,30866,30767,30561,30376,30589,30397,30791,30801,30707,30502,30444,30363,30373,30297,30265,30401,30390,30316,30352,28837,28877,28904,28919,28955,29017,29029,28987,28995,29002,28995,28983,28879,28873,28871,28875,28857,28888,28881,28773,28821,28831,28779,28756,28797,28920,28890,28875,28715,28700,28687,28726,28667,28667,28680,28598,28582,28727,28829,28732,28705,28920,28969,28962,29080,29081,29071,29075,29055,29093,29095,29058,29041,29229,29238,29137,29125,29115,29038,29091,29186,29240,29213,29059,29070,29107,29117,29149,29141,29123,29134,29102,29087,29066,29082,29074,29112,29109,29138,28931,26925,27053,26031,26048,25870,25995,25913,25902,25904,25906,25943,26001,25869,25934,25924,25880,25808,25921,25921,26001,25980,25798,25834,25836,25824,25862,25912,25823,25841,25827,25917,27066,27088,26903,26923,29735,30444,29878,29855,30118,30066,29982,29709,28959,29234,28929,29218,29376,28943,28544,28845,29316,29708,29255,29072,29051,29386,29164,29251,28956,29066,28763,29737,28992,28154,26458,26521,26409,26513,26381,26399,26219,26267,26300,26337,26335,26148,26161,26039,26127,26070,26031,26491,26443,26123,26234,26156,26101,25997,26243,26015,26043,25982,25853,25941,25879,25973,25784,25750,25754,25925,26059,26243,26062,26647,26382,26136,27615,27616,27637,27770,27730,27844,27796,27828,27863,27918,27895,27968,27996,28093,28183,28154,28208,27957,28012,27378,27984,26728,26552,26482,26704,26498,26460,26257,26248,26359,26231,26130,27326,27290,27162,27249,27210,27181,27198,27055,27058,26974,26913,26785,27047,27071,27230,27271,27668,27160,27093,27040,26899,26773,26723,26956,27334,29669,29982,29734,29709,29939,29768,29962,29885,29543,29590,29875,29633,29754,29630,29260,29349,29351,29392,29473,29460,29618,29377,29544,29787,28924,28788,28705,28400,28743,28739,28619,28650,28488,28574,28802
35588,34651,34540,34508,34388,34408,34758,34549,33094,32702,33995,34613,34120,34807,34753,34724,34810,35032,35300,34884,35043,34805,34589,35005,34986,34660,34523,34981,34620,34496,34466,34600,34475,34425,34638,34495,34909,34702,34754,34267,34829,34693,34817,34924,34592,34481,34726,34688,34329,34822,35985,35874,35753,35756,35453,35022,32667,34911,32639,33709,33814,33852,31407,31347,31615,31654,31859,31755,32029,31695,31449,31563,31979,31543,31953,32007,31765,32186,32082,31925,32083,31759,31785,31853,31840,31600,31616,31978,31513,31910,31734,31465,31628,31646,31900,31797,31345,31614,32029,31945,31661,31622,32110,31825,31832,31641,30866,30535,30859,30996,30528,30517,30488,30448,30577,30700,30474,31146,30624,30406,30838,30227,30065,30599,30830,30681,33362,33330,32961,33126,33134,32997,33339,33158,33583,34143,34045,33233,30509,33484,30823,30582,30383,30792,29928,29917,29956,29879,29956,29680,29481,29785,29830,29626,30480,30260,31624,31053,30624,30253,30771,30773,30417,30150,30190,29850,30326,29983,30093,30002,29991,29402,33209,32984,32458,32482,32329,32280,32299,32102,32540,32445,32317,32090,32338,32356,32199,32463,32463,32323,32352,32443,32517,32306,32186,32384,32202,32067,31917,32117,32123,32417,32370,32316,32660,32623,32347,32282,32166,32106,31694,31668,32076,32100,32326,32456,31364,31516,32431,34849,35070,34698,34871,34762,34922,34962,34934,34662,34647,34813,34620,34575,34890,35067,34837,34997,34952,34872,34777,34494,34772,34789,34858,34788,34952,34984,34942,34849,34885,34752,34722,34834,34632,34107,34429,34760,34887,34711,34985,34830,34457,34421,34837,35410,35421,35408,35232,35411,35334,35089,35194,35102,34870,34864,35113,35040,33680,33898,33750,34089,34004,33797,33953,33866,33970,33679,33850,33667,33805,33864,33662,33383,33290,33277,33393,33407,33209,33610,33193,33121,33316,33393,33377,33618,33088,34201,33984,33488,33346,35550,74550,74033,74074,74292,73677,73535,74417,74208,73838,74568,74106,74409,73955,73855,74647,74137,74403,74052,74689,74340,74425,73838,74420,74014,74830,73718,74172,74168,74196,73774,73867,74356,74674,74412,73649,74094,29007,28760,28841,29012,28929,28703,28695,28480,28430,28715,28551,28571,28496,28374,28690,28525,28194,28501,28105,28361,28148,28365,28436,28102,28307,28083,28605,28362,28264,28177,28032,28031,28588,30292,30663,30639,29326,32342,32369,31801,32116,32195,31719,31723,32037,31901,32010,31788,31539,31821,31632,31526,31557,31622,31397,31130,31251,31162,31332,31072,31690,31401,31452,31851,31552,31398,31722,31356,32004,31606,27334,27422,27303,26773,27200,27217,27096,26872,26873,26792,26738,26859,27042,27127,27145,26659,26753,26843,27130,27138,26954,26742,26625,26942,26675,26982,26988,27021,26727,26458,26647,26672,26677,27062,26643,26904,27260,26829,27006,27060,26922,26553,26714,26891,26915,26943,26667,26647,26784,26903,26745,26679,26437,26482,26605,26847,26372,26474,26599,26327,26577,26236,26243,26353,26421,26325,26076,26356,25925,26246,26220,26361,26378,26115,26339,26238,26291,26498,26125,26088,26626,30063,30150,30209,30203,30127,30016,29867,30096,30083,29995,30105,30048,29780,30212,30068,30047,29989,29856,29784,30166,29915,30111,29916,29914,30107,30692,30452,29958,30060,29985,30590,30705,30874,30689,30780,30882,30563,30163,30290,30291,27060,27479,27014,26657,26754,26263,26439,26877,26964,27085,27316,26361,27201,27072,26788,26839,26421,26186,26760,26724,27047,26865,26935,26943,27244,26594,26764,26736,26191,26683,26587,26975,26459,27399,27133,26875,26318,26744,26665,26855,26676,26467,26778,26696,26739,26654,26754,26754,26709,26695,26580,26987,26649,26636,26723,26542,26803,26911,26829,26766,26592,26758,26723,26684,26629,26787,26828,26654,26701,26519,26535,27057,26754,26534,26578,26467,26448,26518,26638,26349,26502,26430,26719,30227,30390,30535,30608,30193,30218,29987,30132,30033,30128,30053,30051,29888,29675,30057,29976,30143,30202,29660,29835,29740,29727,29409,29641,29473,29611,29661,29480,29581,29134,29318,29138,29418,29569,29156,29168,29192,29458,29365,29362,27426,27500,27189,27351,27316,27174,27331,27025,27001,27122,27324,27236,26985,27028,27398,27343,27184,26950,27143,27140,26852,26753,26612,26833,27034,27062,27151,26755,26898,26819,26852,26625,26549,26794,26815,26905,26915,26843,26924,27441,27166,27748,31845,31816,31887,31335,31423,31271,31760,31826,31651,31556,31431,31387,31396,31386,31574,31462,31498,31781,31292,31562,31099,31458,31859,31243,31642,31798,31746,30891,31180,31793,31970,32025,31292,31649,31593,31375,31620,32236,31898,31945,32098,32026,31899,32061,31653,31756,31681,31751,31802,31652,31877,31644,31540,31660,31670,31534,31776,31627,31747,31727,31572,31413,31459,31581,31528,31710,31133,31258,31599,31445,31422,31475,31569,31409,31210,31388,31382,30189,30120,30112,30104,29987,29926,29969,29938,29949,29983,30166,30071,30173,30188,30043,29958,30172,30143,30080,30114,30123,30056,30288,30151,30110,29984,30302,30360,30292,30172,30164,30139,30061,30242,30214,30045,30164,33597,33631,33407,33566,33405,33306,33263,33257,33680,33708,33611,33432,33416,33363,33314,33846,33701,33495,33378,33403,33237,33615,33538,33664,33540,33151,33108,33054,33067,33043,33019,32821,32750,32915,32922,33216,33251,33184,33196,33078,33194,33636,33191,33150,27283,27261,27521,27631,27474,27371,27829,27553,27646,27411,27240,27373,27085,26957,26908,26744,26924,27223,27126,26842,26507,26841,26756,26862,26740,26993,26830,26695,26392,29319,29392,29305,29167,29288,29281,29316,29017,29052,29024,28911,28865,28912,29018,29049,29153,29058,28962,29206,29283,29151,29024,29147,29045,29144,29004,29240,29244,29266,29380,29266,29748,29901,29928,30062,30101,30100,30060,30040,30075,30055,29951,29964,29961,29963,29915,29903,29902,29797,29797,29770,29683,29631,29587,29633,29641,29684,29608,29461,29503,29615,29505,29542,29626,29637,29626,29706,29582,29646,29649,29667,29670,29668,29625,29653,29686,30023,29982,29569,27664,27665,27475,27479,27500,27532,27419,27604,27369,27397,27412,27558,27344,27403,27492,27489,27352,27312,27307,27150,27155,27240,27355,27492,27313,27468,27670,27548,27502,27525,27806,27585,27593,27652,27594,27527,27577,27338,27481,27620,27442,27430,28247,27806,26038,26265,26232,26455,26407,26379,26521,26666,26731,26327,26426,26278,26229,26077,26275,26650,26618,26382,26345,26422,26480,26414,26532,26336,26130,26334,26303,26358,26309,26286,26053,26353,26155,26062,26032,26031,26086,26176,26165,26718,30081,30146,30041,30363,30289,30255,30173,30245,30572,30613,30559,30532,30555,30477,30496,30561,30562,30586,30403,30568,30572,30528,30490,30815,30865,30769,30567,30381,30593,30396,30782,30804,30706,30505,30416,30358,30372,30307,30270,30402,30392,30317,30363,28835,28884,28910,28922,28960,29003,29029,28989,28999,29000,28995,28985,28885,28875,28872,28882,28859,28890,28886,28764,28818,28834,28780,28756,28799,28922,28879,28872,28717,28707,28687,28730,28662,28663,28684,28591,28585,28729,28831,28733,28712,28921,28974,28965,29080,29084,29074,29076,29057,29097,29091,29054,29037,29230,29238,29140,29127,29113,29038,29089,29183,29236,29213,29058,29070,29112,29114,29153,29143,29123,29138,29099,29086,29069,29086,29073,29111,29101,29139,28930,26926,27055,26036,26051,25873,25987,25918,25904,25907,25904,25945,26005,25870,25932,25905,25886,25815,25919,25928,25987,25984,25800,25833,25836,25825,25865,25914,25828,25841,25825,25921,27067,27077,26896,26920,29763,30452,29897,29870,30036,30080,30000,29732,28967,29142,28944,29246,29392,28942,28580,28858,29327,29719,29266,29079,29070,29392,29180,29251,28979,29071,28778,29761,28992,28174,26453,26480,26367,26477,26397,26406,26190,26262,26311,26348,26345,26146,26177,26047,26126,26067,26041,26501,26447,26134,26242,26167,26110,25996,26182,26002,26041,25930,25863,25952,25877,25986,25787,25754,25764,25928,26061,26252,26069,26644,26384,26138,27623,27616,27643,27772,27734,27845,27797,27831,27856,27918,27896,27968,28000,28092,28184,28151,28212,27963,28016,27374,27989,26705,26552,26486,26700,26500,26456,26256,26247,26365,26239,26140,27329,27288,27165,27247,27213,27163,27182,27054,27058,26977,26917,26784,27051,27073,27231,27274,27656,27160,27102,27049,26901,26780,26733,26961,27333,29682,29995,29735,29709,29945,29774,29968,29888,29547,29596,29883,29642,29686,29638,29267,29356,29326,29403,29480,29476,29616,29389,29549,29793,28926,28783,28698,28399,28738,28743,28621,28666,28493,28589,28775
